TimeOfDay_ms,Date,ECG_lead
43260000.000,2026-09-28,0.000000
43260001.000,2026-09-28,0.000000
43260002.000,2026-09-28,0.000000
43260003.000,2026-09-28,0.000000
43260004.000,2026-09-28,0.000000
43260005.000,2026-09-28,0.000001
43260006.000,2026-09-28,0.000001
43260007.000,2026-09-28,0.000001
43260008.000,2026-09-28,0.000001
43260009.000,2026-09-28,0.000001
43260010.000,2026-09-28,0.000001
43260011.000,2026-09-28,0.000002
43260012.000,2026-09-28,0.000002
43260013.000,2026-09-28,0.000002
43260014.000,2026-09-28,0.000003
43260015.000,2026-09-28,0.000003
43260016.000,2026-09-28,0.000004
43260017.000,2026-09-28,0.000005
43260018.000,2026-09-28,0.000005
43260019.000,2026-09-28,0.000006
43260020.000,2026-09-28,0.000007
43260021.000,2026-09-28,0.000009
43260022.000,2026-09-28,0.000010
43260023.000,2026-09-28,0.000012
43260024.000,2026-09-28,0.000014
43260025.000,2026-09-28,0.000016
43260026.000,2026-09-28,0.000019
43260027.000,2026-09-28,0.000022
43260028.000,2026-09-28,0.000026
43260029.000,2026-09-28,0.000030
43260030.000,2026-09-28,0.000035
43260031.000,2026-09-28,0.000041
43260032.000,2026-09-28,0.000047
43260033.000,2026-09-28,0.000055
43260034.000,2026-09-28,0.000063
43260035.000,2026-09-28,0.000073
43260036.000,2026-09-28,0.000084
43260037.000,2026-09-28,0.000096
43260038.000,2026-09-28,0.000111
43260039.000,2026-09-28,0.000127
43260040.000,2026-09-28,0.000146
43260041.000,2026-09-28,0.000167
43260042.000,2026-09-28,0.000191
43260043.000,2026-09-28,0.000217
43260044.000,2026-09-28,0.000248
43260045.000,2026-09-28,0.000282
43260046.000,2026-09-28,0.000320
43260047.000,2026-09-28,0.000364
43260048.000,2026-09-28,0.000412
43260049.000,2026-09-28,0.000466
43260050.000,2026-09-28,0.000527
43260051.000,2026-09-28,0.000595
43260052.000,2026-09-28,0.000671
43260053.000,2026-09-28,0.000755
43260054.000,2026-09-28,0.000849
43260055.000,2026-09-28,0.000953
43260056.000,2026-09-28,0.001068
43260057.000,2026-09-28,0.001196
43260058.000,2026-09-28,0.001337
43260059.000,2026-09-28,0.001493
43260060.000,2026-09-28,0.001664
43260061.000,2026-09-28,0.001853
43260062.000,2026-09-28,0.002060
43260063.000,2026-09-28,0.002288
43260064.000,2026-09-28,0.002537
43260065.000,2026-09-28,0.002809
43260066.000,2026-09-28,0.003107
43260067.000,2026-09-28,0.003431
43260068.000,2026-09-28,0.003783
43260069.000,2026-09-28,0.004167
43260070.000,2026-09-28,0.004583
43260071.000,2026-09-28,0.005033
43260072.000,2026-09-28,0.005520
43260073.000,2026-09-28,0.006047
43260074.000,2026-09-28,0.006614
43260075.000,2026-09-28,0.007225
43260076.000,2026-09-28,0.007881
43260077.000,2026-09-28,0.008585
43260078.000,2026-09-28,0.009339
43260079.000,2026-09-28,0.010146
43260080.000,2026-09-28,0.011007
43260081.000,2026-09-28,0.011925
43260082.000,2026-09-28,0.012902
43260083.000,2026-09-28,0.013940
43260084.000,2026-09-28,0.015041
43260085.000,2026-09-28,0.016207
43260086.000,2026-09-28,0.017439
43260087.000,2026-09-28,0.018739
43260088.000,2026-09-28,0.020109
43260089.000,2026-09-28,0.021550
43260090.000,2026-09-28,0.023062
43260091.000,2026-09-28,0.024646
43260092.000,2026-09-28,0.026304
43260093.000,2026-09-28,0.028034
43260094.000,2026-09-28,0.029838
43260095.000,2026-09-28,0.031714
43260096.000,2026-09-28,0.033662
43260097.000,2026-09-28,0.035681
43260098.000,2026-09-28,0.037770
43260099.000,2026-09-28,0.039926
43260100.000,2026-09-28,0.042148
43260100.056,2026-09-28,0.042275
43260101.000,2026-09-28,0.044432
43260102.000,2026-09-28,0.046777
43260103.000,2026-09-28,0.049178
43260104.000,2026-09-28,0.051633
43260105.000,2026-09-28,0.054136
43260106.000,2026-09-28,0.056682
43260107.000,2026-09-28,0.059268
43260108.000,2026-09-28,0.061887
43260109.000,2026-09-28,0.064534
43260110.000,2026-09-28,0.067203
43260111.000,2026-09-28,0.069886
43260112.000,2026-09-28,0.072577
43260113.000,2026-09-28,0.075269
43260114.000,2026-09-28,0.077954
43260115.000,2026-09-28,0.080625
43260116.000,2026-09-28,0.083273
43260117.000,2026-09-28,0.085891
43260118.000,2026-09-28,0.088470
43260119.000,2026-09-28,0.091002
43260120.000,2026-09-28,0.093478
43260121.000,2026-09-28,0.095890
43260122.000,2026-09-28,0.098231
43260123.000,2026-09-28,0.100490
43260124.000,2026-09-28,0.102661
43260125.000,2026-09-28,0.104735
43260126.000,2026-09-28,0.106705
43260127.000,2026-09-28,0.108563
43260128.000,2026-09-28,0.110302
43260129.000,2026-09-28,0.111915
43260130.000,2026-09-28,0.113397
43260131.000,2026-09-28,0.114740
43260132.000,2026-09-28,0.115941
43260133.000,2026-09-28,0.116993
43260134.000,2026-09-28,0.117893
43260135.000,2026-09-28,0.118636
43260136.000,2026-09-28,0.119221
43260137.000,2026-09-28,0.119644
43260138.000,2026-09-28,0.119904
43260139.000,2026-09-28,0.119999
43260140.000,2026-09-28,0.119930
43260141.000,2026-09-28,0.119696
43260142.000,2026-09-28,0.119298
43260143.000,2026-09-28,0.118739
43260144.000,2026-09-28,0.118019
43260145.000,2026-09-28,0.117143
43260146.000,2026-09-28,0.116113
43260147.000,2026-09-28,0.114934
43260148.000,2026-09-28,0.113611
43260149.000,2026-09-28,0.112148
43260150.000,2026-09-28,0.110552
43260151.000,2026-09-28,0.108829
43260152.000,2026-09-28,0.106985
43260153.000,2026-09-28,0.105027
43260154.000,2026-09-28,0.102963
43260155.000,2026-09-28,0.100801
43260156.000,2026-09-28,0.098549
43260157.000,2026-09-28,0.096214
43260158.000,2026-09-28,0.093804
43260159.000,2026-09-28,0.091330
43260160.000,2026-09-28,0.088797
43260161.000,2026-09-28,0.086216
43260162.000,2026-09-28,0.083595
43260163.000,2026-09-28,0.080942
43260164.000,2026-09-28,0.078264
43260165.000,2026-09-28,0.075571
43260166.000,2026-09-28,0.072870
43260167.000,2026-09-28,0.070168
43260168.000,2026-09-28,0.067474
43260169.000,2026-09-28,0.064793
43260170.000,2026-09-28,0.062133
43260171.000,2026-09-28,0.059499
43260172.000,2026-09-28,0.056899
43260173.000,2026-09-28,0.054337
43260174.000,2026-09-28,0.051819
43260175.000,2026-09-28,0.049349
43260176.000,2026-09-28,0.046932
43260177.000,2026-09-28,0.044572
43260178.000,2026-09-28,0.042272
43260179.000,2026-09-28,0.040035
43260180.000,2026-09-28,0.037864
43260181.000,2026-09-28,0.035761
43260182.000,2026-09-28,0.033728
43260183.000,2026-09-28,0.031767
43260184.000,2026-09-28,0.029878
43260185.000,2026-09-28,0.028063
43260186.000,2026-09-28,0.026322
43260187.000,2026-09-28,0.024654
43260188.000,2026-09-28,0.023061
43260189.000,2026-09-28,0.021540
43260190.000,2026-09-28,0.020092
43260191.000,2026-09-28,0.018715
43260192.000,2026-09-28,0.017408
43260193.000,2026-09-28,0.016170
43260194.000,2026-09-28,0.015000
43260195.000,2026-09-28,0.013894
43260196.000,2026-09-28,0.012853
43260197.000,2026-09-28,0.011873
43260198.000,2026-09-28,0.010952
43260199.000,2026-09-28,0.010089
43260200.000,2026-09-28,0.009281
43260200.111,2026-09-28,0.009197
43260201.000,2026-09-28,0.008526
43260202.000,2026-09-28,0.007822
43260203.000,2026-09-28,0.007165
43260204.000,2026-09-28,0.006555
43260205.000,2026-09-28,0.005988
43260206.000,2026-09-28,0.005462
43260207.000,2026-09-28,0.004976
43260208.000,2026-09-28,0.004527
43260209.000,2026-09-28,0.004112
43260210.000,2026-09-28,0.003730
43260211.000,2026-09-28,0.003379
43260212.000,2026-09-28,0.003057
43260213.000,2026-09-28,0.002761
43260214.000,2026-09-28,0.002491
43260215.000,2026-09-28,0.002244
43260216.000,2026-09-28,0.002018
43260217.000,2026-09-28,0.001813
43260218.000,2026-09-28,0.001626
43260219.000,2026-09-28,0.001457
43260220.000,2026-09-28,0.001303
43260221.000,2026-09-28,0.001164
43260222.000,2026-09-28,0.001038
43260223.000,2026-09-28,0.000925
43260224.000,2026-09-28,0.000823
43260225.000,2026-09-28,0.000731
43260226.000,2026-09-28,0.000648
43260227.000,2026-09-28,0.000574
43260228.000,2026-09-28,0.000508
43260229.000,2026-09-28,0.000449
43260230.000,2026-09-28,0.000396
43260231.000,2026-09-28,0.000349
43260232.000,2026-09-28,0.000307
43260233.000,2026-09-28,0.000270
43260234.000,2026-09-28,0.000237
43260235.000,2026-09-28,0.000208
43260236.000,2026-09-28,0.000182
43260237.000,2026-09-28,0.000159
43260238.000,2026-09-28,0.000139
43260239.000,2026-09-28,0.000121
43260240.000,2026-09-28,0.000105
43260241.000,2026-09-28,0.000090
43260242.000,2026-09-28,0.000076
43260243.000,2026-09-28,0.000063
43260244.000,2026-09-28,0.000048
43260245.000,2026-09-28,0.000030
43260246.000,2026-09-28,0.000007
43260247.000,2026-09-28,-0.000027
43260248.000,2026-09-28,-0.000077
43260249.000,2026-09-28,-0.000152
43260250.000,2026-09-28,-0.000267
43260251.000,2026-09-28,-0.000441
43260252.000,2026-09-28,-0.000701
43260253.000,2026-09-28,-0.001083
43260254.000,2026-09-28,-0.001636
43260255.000,2026-09-28,-0.002422
43260256.000,2026-09-28,-0.003517
43260257.000,2026-09-28,-0.005017
43260258.000,2026-09-28,-0.007030
43260259.000,2026-09-28,-0.009681
43260260.000,2026-09-28,-0.013101
43260261.000,2026-09-28,-0.017424
43260262.000,2026-09-28,-0.022777
43260263.000,2026-09-28,-0.029266
43260264.000,2026-09-28,-0.036961
43260265.000,2026-09-28,-0.045880
43260266.000,2026-09-28,-0.055980
43260267.000,2026-09-28,-0.067135
43260268.000,2026-09-28,-0.079136
43260269.000,2026-09-28,-0.091689
43260270.000,2026-09-28,-0.104417
43260271.000,2026-09-28,-0.116877
43260272.000,2026-09-28,-0.128585
43260273.000,2026-09-28,-0.139045
43260274.000,2026-09-28,-0.147780
43260275.000,2026-09-28,-0.154371
43260276.000,2026-09-28,-0.158488
43260277.000,2026-09-28,-0.159915
43260278.000,2026-09-28,-0.158567
43260279.000,2026-09-28,-0.154495
43260280.000,2026-09-28,-0.147874
43260281.000,2026-09-28,-0.138981
43260282.000,2026-09-28,-0.128163
43260283.000,2026-09-28,-0.115788
43260284.000,2026-09-28,-0.102200
43260285.000,2026-09-28,-0.087660
43260286.000,2026-09-28,-0.072299
43260287.000,2026-09-28,-0.056069
43260288.000,2026-09-28,-0.038705
43260289.000,2026-09-28,-0.019705
43260290.000,2026-09-28,0.001678
43260291.000,2026-09-28,0.026413
43260292.000,2026-09-28,0.055640
43260293.000,2026-09-28,0.090591
43260294.000,2026-09-28,0.132467
43260295.000,2026-09-28,0.182296
43260296.000,2026-09-28,0.240757
43260297.000,2026-09-28,0.308013
43260298.000,2026-09-28,0.383542
43260299.000,2026-09-28,0.466021
43260300.000,2026-09-28,0.553273
43260300.167,2026-09-28,0.568119
43260301.000,2026-09-28,0.642300
43260302.000,2026-09-28,0.729413
43260303.000,2026-09-28,0.810477
43260304.000,2026-09-28,0.881222
43260305.000,2026-09-28,0.937618
43260306.000,2026-09-28,0.976247
43260307.000,2026-09-28,0.994647
43260308.000,2026-09-28,0.991559
43260309.000,2026-09-28,0.967060
43260310.000,2026-09-28,0.922549
43260311.000,2026-09-28,0.860595
43260312.000,2026-09-28,0.784674
43260313.000,2026-09-28,0.698820
43260314.000,2026-09-28,0.607249
43260315.000,2026-09-28,0.513997
43260316.000,2026-09-28,0.422623
43260317.000,2026-09-28,0.335990
43260318.000,2026-09-28,0.256157
43260319.000,2026-09-28,0.184362
43260320.000,2026-09-28,0.121093
43260321.000,2026-09-28,0.066216
43260322.000,2026-09-28,0.019132
43260323.000,2026-09-28,-0.021044
43260324.000,2026-09-28,-0.055337
43260325.000,2026-09-28,-0.084776
43260326.000,2026-09-28,-0.110302
43260327.000,2026-09-28,-0.132705
43260328.000,2026-09-28,-0.152595
43260329.000,2026-09-28,-0.170402
43260330.000,2026-09-28,-0.186386
43260331.000,2026-09-28,-0.200667
43260332.000,2026-09-28,-0.213256
43260333.000,2026-09-28,-0.224088
43260334.000,2026-09-28,-0.233057
43260335.000,2026-09-28,-0.240038
43260336.000,2026-09-28,-0.244918
43260337.000,2026-09-28,-0.247606
43260338.000,2026-09-28,-0.248056
43260339.000,2026-09-28,-0.246266
43260340.000,2026-09-28,-0.242290
43260341.000,2026-09-28,-0.236234
43260342.000,2026-09-28,-0.228254
43260343.000,2026-09-28,-0.218551
43260344.000,2026-09-28,-0.207364
43260345.000,2026-09-28,-0.194955
43260346.000,2026-09-28,-0.181608
43260347.000,2026-09-28,-0.167610
43260348.000,2026-09-28,-0.153245
43260349.000,2026-09-28,-0.138783
43260350.000,2026-09-28,-0.124474
43260351.000,2026-09-28,-0.110541
43260352.000,2026-09-28,-0.097170
43260353.000,2026-09-28,-0.084517
43260354.000,2026-09-28,-0.072699
43260355.000,2026-09-28,-0.061796
43260356.000,2026-09-28,-0.051857
43260357.000,2026-09-28,-0.042897
43260358.000,2026-09-28,-0.034907
43260359.000,2026-09-28,-0.027854
43260360.000,2026-09-28,-0.021688
43260361.000,2026-09-28,-0.016346
43260362.000,2026-09-28,-0.011753
43260363.000,2026-09-28,-0.007835
43260364.000,2026-09-28,-0.004511
43260365.000,2026-09-28,-0.001703
43260366.000,2026-09-28,0.000661
43260367.000,2026-09-28,0.002651
43260368.000,2026-09-28,0.004331
43260369.000,2026-09-28,0.005757
43260370.000,2026-09-28,0.006978
43260371.000,2026-09-28,0.008037
43260372.000,2026-09-28,0.008970
43260373.000,2026-09-28,0.009808
43260374.000,2026-09-28,0.010577
43260375.000,2026-09-28,0.011296
43260376.000,2026-09-28,0.011983
43260377.000,2026-09-28,0.012651
43260378.000,2026-09-28,0.013311
43260379.000,2026-09-28,0.013970
43260380.000,2026-09-28,0.014635
43260381.000,2026-09-28,0.015312
43260382.000,2026-09-28,0.016004
43260383.000,2026-09-28,0.016714
43260384.000,2026-09-28,0.017445
43260385.000,2026-09-28,0.018198
43260386.000,2026-09-28,0.018975
43260387.000,2026-09-28,0.019778
43260388.000,2026-09-28,0.020607
43260389.000,2026-09-28,0.021464
43260390.000,2026-09-28,0.022348
43260391.000,2026-09-28,0.023262
43260392.000,2026-09-28,0.024205
43260393.000,2026-09-28,0.025178
43260394.000,2026-09-28,0.026183
43260395.000,2026-09-28,0.027219
43260396.000,2026-09-28,0.028287
43260397.000,2026-09-28,0.029388
43260398.000,2026-09-28,0.030522
43260399.000,2026-09-28,0.031690
43260400.000,2026-09-28,0.032893
43260400.222,2026-09-28,0.033168
43260401.000,2026-09-28,0.034130
43260402.000,2026-09-28,0.035404
43260403.000,2026-09-28,0.036713
43260404.000,2026-09-28,0.038059
43260405.000,2026-09-28,0.039441
43260406.000,2026-09-28,0.040862
43260407.000,2026-09-28,0.042320
43260408.000,2026-09-28,0.043816
43260409.000,2026-09-28,0.045351
43260410.000,2026-09-28,0.046926
43260411.000,2026-09-28,0.048540
43260412.000,2026-09-28,0.050193
43260413.000,2026-09-28,0.051887
43260414.000,2026-09-28,0.053621
43260415.000,2026-09-28,0.055396
43260416.000,2026-09-28,0.057211
43260417.000,2026-09-28,0.059068
43260418.000,2026-09-28,0.060966
43260419.000,2026-09-28,0.062905
43260420.000,2026-09-28,0.064886
43260421.000,2026-09-28,0.066908
43260422.000,2026-09-28,0.068971
43260423.000,2026-09-28,0.071077
43260424.000,2026-09-28,0.073223
43260425.000,2026-09-28,0.075411
43260426.000,2026-09-28,0.077640
43260427.000,2026-09-28,0.079910
43260428.000,2026-09-28,0.082221
43260429.000,2026-09-28,0.084572
43260430.000,2026-09-28,0.086963
43260431.000,2026-09-28,0.089394
43260432.000,2026-09-28,0.091864
43260433.000,2026-09-28,0.094374
43260434.000,2026-09-28,0.096921
43260435.000,2026-09-28,0.099506
43260436.000,2026-09-28,0.102129
43260437.000,2026-09-28,0.104788
43260438.000,2026-09-28,0.107483
43260439.000,2026-09-28,0.110212
43260440.000,2026-09-28,0.112976
43260441.000,2026-09-28,0.115774
43260442.000,2026-09-28,0.118603
43260443.000,2026-09-28,0.121464
43260444.000,2026-09-28,0.124355
43260445.000,2026-09-28,0.127276
43260446.000,2026-09-28,0.130224
43260447.000,2026-09-28,0.133200
43260448.000,2026-09-28,0.136201
43260449.000,2026-09-28,0.139226
43260450.000,2026-09-28,0.142275
43260451.000,2026-09-28,0.145345
43260452.000,2026-09-28,0.148435
43260453.000,2026-09-28,0.151543
43260454.000,2026-09-28,0.154669
43260455.000,2026-09-28,0.157810
43260456.000,2026-09-28,0.160965
43260457.000,2026-09-28,0.164133
43260458.000,2026-09-28,0.167310
43260459.000,2026-09-28,0.170496
43260460.000,2026-09-28,0.173689
43260461.000,2026-09-28,0.176887
43260462.000,2026-09-28,0.180087
43260463.000,2026-09-28,0.183289
43260464.000,2026-09-28,0.186490
43260465.000,2026-09-28,0.189688
43260466.000,2026-09-28,0.192881
43260467.000,2026-09-28,0.196066
43260468.000,2026-09-28,0.199243
43260469.000,2026-09-28,0.202408
43260470.000,2026-09-28,0.205560
43260471.000,2026-09-28,0.208696
43260472.000,2026-09-28,0.211814
43260473.000,2026-09-28,0.214913
43260474.000,2026-09-28,0.217989
43260475.000,2026-09-28,0.221041
43260476.000,2026-09-28,0.224065
43260477.000,2026-09-28,0.227061
43260478.000,2026-09-28,0.230026
43260479.000,2026-09-28,0.232957
43260480.000,2026-09-28,0.235853
43260481.000,2026-09-28,0.238711
43260482.000,2026-09-28,0.241528
43260483.000,2026-09-28,0.244303
43260484.000,2026-09-28,0.247034
43260485.000,2026-09-28,0.249718
43260486.000,2026-09-28,0.252352
43260487.000,2026-09-28,0.254936
43260488.000,2026-09-28,0.257466
43260489.000,2026-09-28,0.259941
43260490.000,2026-09-28,0.262359
43260491.000,2026-09-28,0.264717
43260492.000,2026-09-28,0.267014
43260493.000,2026-09-28,0.269248
43260494.000,2026-09-28,0.271416
43260495.000,2026-09-28,0.273517
43260496.000,2026-09-28,0.275549
43260497.000,2026-09-28,0.277511
43260498.000,2026-09-28,0.279400
43260499.000,2026-09-28,0.281215
43260500.000,2026-09-28,0.282954
43260500.278,2026-09-28,0.283416
43260501.000,2026-09-28,0.284616
43260502.000,2026-09-28,0.286200
43260503.000,2026-09-28,0.287704
43260504.000,2026-09-28,0.289126
43260505.000,2026-09-28,0.290466
43260506.000,2026-09-28,0.291722
43260507.000,2026-09-28,0.292893
43260508.000,2026-09-28,0.293977
43260509.000,2026-09-28,0.294975
43260510.000,2026-09-28,0.295885
43260511.000,2026-09-28,0.296705
43260512.000,2026-09-28,0.297436
43260513.000,2026-09-28,0.298077
43260514.000,2026-09-28,0.298626
43260515.000,2026-09-28,0.299084
43260516.000,2026-09-28,0.299449
43260517.000,2026-09-28,0.299723
43260518.000,2026-09-28,0.299903
43260519.000,2026-09-28,0.299991
43260520.000,2026-09-28,0.299986
43260521.000,2026-09-28,0.299887
43260522.000,2026-09-28,0.299696
43260523.000,2026-09-28,0.299411
43260524.000,2026-09-28,0.299034
43260525.000,2026-09-28,0.298565
43260526.000,2026-09-28,0.298004
43260527.000,2026-09-28,0.297352
43260528.000,2026-09-28,0.296609
43260529.000,2026-09-28,0.295775
43260530.000,2026-09-28,0.294852
43260531.000,2026-09-28,0.293841
43260532.000,2026-09-28,0.292742
43260533.000,2026-09-28,0.291556
43260534.000,2026-09-28,0.290285
43260535.000,2026-09-28,0.288929
43260536.000,2026-09-28,0.287490
43260537.000,2026-09-28,0.285968
43260538.000,2026-09-28,0.284367
43260539.000,2026-09-28,0.282686
43260540.000,2026-09-28,0.280927
43260541.000,2026-09-28,0.279092
43260542.000,2026-09-28,0.277182
43260543.000,2026-09-28,0.275200
43260544.000,2026-09-28,0.273146
43260545.000,2026-09-28,0.271023
43260546.000,2026-09-28,0.268833
43260547.000,2026-09-28,0.266577
43260548.000,2026-09-28,0.264257
43260549.000,2026-09-28,0.261875
43260550.000,2026-09-28,0.259434
43260551.000,2026-09-28,0.256935
43260552.000,2026-09-28,0.254380
43260553.000,2026-09-28,0.251772
43260554.000,2026-09-28,0.249113
43260555.000,2026-09-28,0.246405
43260556.000,2026-09-28,0.243649
43260557.000,2026-09-28,0.240849
43260558.000,2026-09-28,0.238007
43260559.000,2026-09-28,0.235124
43260560.000,2026-09-28,0.232203
43260561.000,2026-09-28,0.229247
43260562.000,2026-09-28,0.226257
43260563.000,2026-09-28,0.223237
43260564.000,2026-09-28,0.220187
43260565.000,2026-09-28,0.217111
43260566.000,2026-09-28,0.214011
43260567.000,2026-09-28,0.210888
43260568.000,2026-09-28,0.207746
43260569.000,2026-09-28,0.204586
43260570.000,2026-09-28,0.201411
43260571.000,2026-09-28,0.198223
43260572.000,2026-09-28,0.195025
43260573.000,2026-09-28,0.191817
43260574.000,2026-09-28,0.188603
43260575.000,2026-09-28,0.185384
43260576.000,2026-09-28,0.182163
43260577.000,2026-09-28,0.178941
43260578.000,2026-09-28,0.175721
43260579.000,2026-09-28,0.172505
43260580.000,2026-09-28,0.169294
43260581.000,2026-09-28,0.166090
43260582.000,2026-09-28,0.162896
43260583.000,2026-09-28,0.159713
43260584.000,2026-09-28,0.156543
43260585.000,2026-09-28,0.153387
43260586.000,2026-09-28,0.150247
43260587.000,2026-09-28,0.147126
43260588.000,2026-09-28,0.144023
43260589.000,2026-09-28,0.140942
43260590.000,2026-09-28,0.137883
43260591.000,2026-09-28,0.134847
43260592.000,2026-09-28,0.131837
43260593.000,2026-09-28,0.128854
43260594.000,2026-09-28,0.125898
43260595.000,2026-09-28,0.122971
43260596.000,2026-09-28,0.120074
43260597.000,2026-09-28,0.117208
43260598.000,2026-09-28,0.114375
43260599.000,2026-09-28,0.111574
43260600.000,2026-09-28,0.108808
43260600.334,2026-09-28,0.107897
43260601.000,2026-09-28,0.106077
43260602.000,2026-09-28,0.103382
43260603.000,2026-09-28,0.100723
43260604.000,2026-09-28,0.098101
43260605.000,2026-09-28,0.095517
43260606.000,2026-09-28,0.092972
43260607.000,2026-09-28,0.090465
43260608.000,2026-09-28,0.087998
43260609.000,2026-09-28,0.085572
43260610.000,2026-09-28,0.083185
43260611.000,2026-09-28,0.080840
43260612.000,2026-09-28,0.078535
43260613.000,2026-09-28,0.076272
43260614.000,2026-09-28,0.074051
43260615.000,2026-09-28,0.071871
43260616.000,2026-09-28,0.069734
43260617.000,2026-09-28,0.067638
43260618.000,2026-09-28,0.065584
43260619.000,2026-09-28,0.063573
43260620.000,2026-09-28,0.061603
43260621.000,2026-09-28,0.059676
43260622.000,2026-09-28,0.057790
43260623.000,2026-09-28,0.055946
43260624.000,2026-09-28,0.054143
43260625.000,2026-09-28,0.052382
43260626.000,2026-09-28,0.050662
43260627.000,2026-09-28,0.048983
43260628.000,2026-09-28,0.047344
43260629.000,2026-09-28,0.045746
43260630.000,2026-09-28,0.044187
43260631.000,2026-09-28,0.042668
43260632.000,2026-09-28,0.041188
43260633.000,2026-09-28,0.039746
43260634.000,2026-09-28,0.038343
43260635.000,2026-09-28,0.036977
43260636.000,2026-09-28,0.035648
43260637.000,2026-09-28,0.034357
43260638.000,2026-09-28,0.033101
43260639.000,2026-09-28,0.031881
43260640.000,2026-09-28,0.030696
43260641.000,2026-09-28,0.029546
43260642.000,2026-09-28,0.028430
43260643.000,2026-09-28,0.027347
43260644.000,2026-09-28,0.026297
43260645.000,2026-09-28,0.025279
43260646.000,2026-09-28,0.024293
43260647.000,2026-09-28,0.023337
43260648.000,2026-09-28,0.022413
43260649.000,2026-09-28,0.021517
43260650.000,2026-09-28,0.020651
43260651.000,2026-09-28,0.019814
43260652.000,2026-09-28,0.019004
43260653.000,2026-09-28,0.018222
43260654.000,2026-09-28,0.017466
43260655.000,2026-09-28,0.016736
43260656.000,2026-09-28,0.016031
43260657.000,2026-09-28,0.015351
43260658.000,2026-09-28,0.014696
43260659.000,2026-09-28,0.014063
43260660.000,2026-09-28,0.013454
43260661.000,2026-09-28,0.012867
43260662.000,2026-09-28,0.012301
43260663.000,2026-09-28,0.011757
43260664.000,2026-09-28,0.011233
43260665.000,2026-09-28,0.010729
43260666.000,2026-09-28,0.010244
43260667.000,2026-09-28,0.009778
43260668.000,2026-09-28,0.009330
43260669.000,2026-09-28,0.008900
43260670.000,2026-09-28,0.008487
43260671.000,2026-09-28,0.008091
43260672.000,2026-09-28,0.007710
43260673.000,2026-09-28,0.007345
43260674.000,2026-09-28,0.006995
43260675.000,2026-09-28,0.006660
43260676.000,2026-09-28,0.006338
43260677.000,2026-09-28,0.006031
43260678.000,2026-09-28,0.005736
43260679.000,2026-09-28,0.005454
43260680.000,2026-09-28,0.005184
43260681.000,2026-09-28,0.004926
43260682.000,2026-09-28,0.004679
43260683.000,2026-09-28,0.004443
43260684.000,2026-09-28,0.004218
43260685.000,2026-09-28,0.004003
43260686.000,2026-09-28,0.003797
43260687.000,2026-09-28,0.003601
43260688.000,2026-09-28,0.003414
43260689.000,2026-09-28,0.003236
43260690.000,2026-09-28,0.003066
43260691.000,2026-09-28,0.002904
43260692.000,2026-09-28,0.002749
43260693.000,2026-09-28,0.002602
43260694.000,2026-09-28,0.002462
43260695.000,2026-09-28,0.002329
43260696.000,2026-09-28,0.002202
43260697.000,2026-09-28,0.002082
43260698.000,2026-09-28,0.001967
43260699.000,2026-09-28,0.001858
43260700.000,2026-09-28,0.001755
43260700.389,2026-09-28,0.001717
43260701.000,2026-09-28,0.001657
43260702.000,2026-09-28,0.001564
43260703.000,2026-09-28,0.001475
43260704.000,2026-09-28,0.001392
43260705.000,2026-09-28,0.001312
43260706.000,2026-09-28,0.001237
43260707.000,2026-09-28,0.001165
43260708.000,2026-09-28,0.001098
43260709.000,2026-09-28,0.001034
43260710.000,2026-09-28,0.000973
43260711.000,2026-09-28,0.000916
43260712.000,2026-09-28,0.000861
43260713.000,2026-09-28,0.000810
43260714.000,2026-09-28,0.000762
43260715.000,2026-09-28,0.000716
43260716.000,2026-09-28,0.000672
43260717.000,2026-09-28,0.000632
43260718.000,2026-09-28,0.000593
43260719.000,2026-09-28,0.000557
43260720.000,2026-09-28,0.000522
43260721.000,2026-09-28,0.000490
43260722.000,2026-09-28,0.000459
43260723.000,2026-09-28,0.000431
43260724.000,2026-09-28,0.000404
43260725.000,2026-09-28,0.000378
43260726.000,2026-09-28,0.000354
43260727.000,2026-09-28,0.000331
43260728.000,2026-09-28,0.000310
43260729.000,2026-09-28,0.000290
43260730.000,2026-09-28,0.000271
43260731.000,2026-09-28,0.000254
43260732.000,2026-09-28,0.000237
43260733.000,2026-09-28,0.000222
43260734.000,2026-09-28,0.000207
43260735.000,2026-09-28,0.000193
43260736.000,2026-09-28,0.000181
43260737.000,2026-09-28,0.000168
43260738.000,2026-09-28,0.000157
43260739.000,2026-09-28,0.000147
43260740.000,2026-09-28,0.000137
43260741.000,2026-09-28,0.000127
43260742.000,2026-09-28,0.000119
43260743.000,2026-09-28,0.000111
43260744.000,2026-09-28,0.000103
43260745.000,2026-09-28,0.000096
43260746.000,2026-09-28,0.000089
43260747.000,2026-09-28,0.000083
43260748.000,2026-09-28,0.000077
43260749.000,2026-09-28,0.000072
43260750.000,2026-09-28,0.000067
43260751.000,2026-09-28,0.000062
43260752.000,2026-09-28,0.000057
43260753.000,2026-09-28,0.000053
43260754.000,2026-09-28,0.000050
43260755.000,2026-09-28,0.000046
43260756.000,2026-09-28,0.000043
43260757.000,2026-09-28,0.000040
43260758.000,2026-09-28,0.000037
43260759.000,2026-09-28,0.000034
43260760.000,2026-09-28,0.000000
43260761.000,2026-09-28,0.000000
43260762.000,2026-09-28,0.000000
43260763.000,2026-09-28,0.000000
43260764.000,2026-09-28,0.000001
43260765.000,2026-09-28,0.000001
43260766.000,2026-09-28,0.000001
43260767.000,2026-09-28,0.000001
43260768.000,2026-09-28,0.000001
43260769.000,2026-09-28,0.000001
43260770.000,2026-09-28,0.000002
43260771.000,2026-09-28,0.000002
43260772.000,2026-09-28,0.000002
43260773.000,2026-09-28,0.000003
43260774.000,2026-09-28,0.000003
43260775.000,2026-09-28,0.000004
43260776.000,2026-09-28,0.000005
43260777.000,2026-09-28,0.000006
43260778.000,2026-09-28,0.000007
43260779.000,2026-09-28,0.000008
43260780.000,2026-09-28,0.000010
43260781.000,2026-09-28,0.000011
43260782.000,2026-09-28,0.000013
43260783.000,2026-09-28,0.000016
43260784.000,2026-09-28,0.000018
43260785.000,2026-09-28,0.000022
43260786.000,2026-09-28,0.000025
43260787.000,2026-09-28,0.000030
43260788.000,2026-09-28,0.000035
43260789.000,2026-09-28,0.000040
43260790.000,2026-09-28,0.000047
43260791.000,2026-09-28,0.000055
43260792.000,2026-09-28,0.000064
43260793.000,2026-09-28,0.000074
43260794.000,2026-09-28,0.000085
43260795.000,2026-09-28,0.000099
43260796.000,2026-09-28,0.000114
43260797.000,2026-09-28,0.000132
43260798.000,2026-09-28,0.000152
43260799.000,2026-09-28,0.000174
43260800.000,2026-09-28,0.000200
43260800.445,2026-09-28,0.000213
43260801.000,2026-09-28,0.000229
43260802.000,2026-09-28,0.000263
43260803.000,2026-09-28,0.000300
43260804.000,2026-09-28,0.000343
43260805.000,2026-09-28,0.000390
43260806.000,2026-09-28,0.000444
43260807.000,2026-09-28,0.000505
43260808.000,2026-09-28,0.000573
43260809.000,2026-09-28,0.000649
43260810.000,2026-09-28,0.000734
43260811.000,2026-09-28,0.000829
43260812.000,2026-09-28,0.000935
43260813.000,2026-09-28,0.001053
43260814.000,2026-09-28,0.001184
43260815.000,2026-09-28,0.001330
43260816.000,2026-09-28,0.001491
43260817.000,2026-09-28,0.001669
43260818.000,2026-09-28,0.001866
43260819.000,2026-09-28,0.002083
43260820.000,2026-09-28,0.002322
43260821.000,2026-09-28,0.002584
43260822.000,2026-09-28,0.002872
43260823.000,2026-09-28,0.003187
43260824.000,2026-09-28,0.003531
43260825.000,2026-09-28,0.003907
43260826.000,2026-09-28,0.004316
43260827.000,2026-09-28,0.004762
43260828.000,2026-09-28,0.005245
43260829.000,2026-09-28,0.005769
43260830.000,2026-09-28,0.006336
43260831.000,2026-09-28,0.006949
43260832.000,2026-09-28,0.007610
43260833.000,2026-09-28,0.008321
43260834.000,2026-09-28,0.009085
43260835.000,2026-09-28,0.009905
43260836.000,2026-09-28,0.010783
43260837.000,2026-09-28,0.011721
43260838.000,2026-09-28,0.012722
43260839.000,2026-09-28,0.013789
43260840.000,2026-09-28,0.014923
43260841.000,2026-09-28,0.016126
43260842.000,2026-09-28,0.017401
43260843.000,2026-09-28,0.018749
43260844.000,2026-09-28,0.020171
43260845.000,2026-09-28,0.021670
43260846.000,2026-09-28,0.023245
43260847.000,2026-09-28,0.024899
43260848.000,2026-09-28,0.026631
43260849.000,2026-09-28,0.028442
43260850.000,2026-09-28,0.030331
43260851.000,2026-09-28,0.032298
43260852.000,2026-09-28,0.034342
43260853.000,2026-09-28,0.036461
43260854.000,2026-09-28,0.038655
43260855.000,2026-09-28,0.040920
43260856.000,2026-09-28,0.043255
43260857.000,2026-09-28,0.045655
43260858.000,2026-09-28,0.048118
43260859.000,2026-09-28,0.050639
43260860.000,2026-09-28,0.053214
43260861.000,2026-09-28,0.055838
43260862.000,2026-09-28,0.058505
43260863.000,2026-09-28,0.061210
43260864.000,2026-09-28,0.063945
43260865.000,2026-09-28,0.066705
43260866.000,2026-09-28,0.069482
43260867.000,2026-09-28,0.072268
43260868.000,2026-09-28,0.075056
43260869.000,2026-09-28,0.077836
43260870.000,2026-09-28,0.080602
43260871.000,2026-09-28,0.083343
43260872.000,2026-09-28,0.086050
43260873.000,2026-09-28,0.088716
43260874.000,2026-09-28,0.091330
43260875.000,2026-09-28,0.093882
43260876.000,2026-09-28,0.096365
43260877.000,2026-09-28,0.098768
43260878.000,2026-09-28,0.101083
43260879.000,2026-09-28,0.103301
43260880.000,2026-09-28,0.105412
43260881.000,2026-09-28,0.107409
43260882.000,2026-09-28,0.109283
43260883.000,2026-09-28,0.111026
43260884.000,2026-09-28,0.112633
43260885.000,2026-09-28,0.114095
43260886.000,2026-09-28,0.115407
43260887.000,2026-09-28,0.116562
43260888.000,2026-09-28,0.117557
43260889.000,2026-09-28,0.118387
43260890.000,2026-09-28,0.119048
43260891.000,2026-09-28,0.119537
43260892.000,2026-09-28,0.119852
43260893.000,2026-09-28,0.119992
43260894.000,2026-09-28,0.119957
43260895.000,2026-09-28,0.119745
43260896.000,2026-09-28,0.119360
43260897.000,2026-09-28,0.118801
43260898.000,2026-09-28,0.118072
43260899.000,2026-09-28,0.117175
43260900.000,2026-09-28,0.116115
43260900.500,2026-09-28,0.115505
43260901.000,2026-09-28,0.114896
43260902.000,2026-09-28,0.113523
43260903.000,2026-09-28,0.112003
43260904.000,2026-09-28,0.110340
43260905.000,2026-09-28,0.108543
43260906.000,2026-09-28,0.106618
43260907.000,2026-09-28,0.104574
43260908.000,2026-09-28,0.102417
43260909.000,2026-09-28,0.100158
43260910.000,2026-09-28,0.097805
43260911.000,2026-09-28,0.095367
43260912.000,2026-09-28,0.092852
43260913.000,2026-09-28,0.090271
43260914.000,2026-09-28,0.087632
43260915.000,2026-09-28,0.084945
43260916.000,2026-09-28,0.082219
43260917.000,2026-09-28,0.079463
43260918.000,2026-09-28,0.076686
43260919.000,2026-09-28,0.073897
43260920.000,2026-09-28,0.071104
43260921.000,2026-09-28,0.068316
43260922.000,2026-09-28,0.065540
43260923.000,2026-09-28,0.062784
43260924.000,2026-09-28,0.060055
43260925.000,2026-09-28,0.057360
43260926.000,2026-09-28,0.054704
43260927.000,2026-09-28,0.052094
43260928.000,2026-09-28,0.049536
43260929.000,2026-09-28,0.047033
43260930.000,2026-09-28,0.044590
43260931.000,2026-09-28,0.042212
43260932.000,2026-09-28,0.039901
43260933.000,2026-09-28,0.037661
43260934.000,2026-09-28,0.035494
43260935.000,2026-09-28,0.033402
43260936.000,2026-09-28,0.031386
43260937.000,2026-09-28,0.029449
43260938.000,2026-09-28,0.027590
43260939.000,2026-09-28,0.025810
43260940.000,2026-09-28,0.024108
43260941.000,2026-09-28,0.022486
43260942.000,2026-09-28,0.020941
43260943.000,2026-09-28,0.019474
43260944.000,2026-09-28,0.018082
43260945.000,2026-09-28,0.016765
43260946.000,2026-09-28,0.015521
43260947.000,2026-09-28,0.014347
43260948.000,2026-09-28,0.013243
43260949.000,2026-09-28,0.012205
43260950.000,2026-09-28,0.011232
43260951.000,2026-09-28,0.010321
43260952.000,2026-09-28,0.009470
43260953.000,2026-09-28,0.008676
43260954.000,2026-09-28,0.007937
43260955.000,2026-09-28,0.007249
43260956.000,2026-09-28,0.006612
43260957.000,2026-09-28,0.006021
43260958.000,2026-09-28,0.005475
43260959.000,2026-09-28,0.004972
43260960.000,2026-09-28,0.004507
43260961.000,2026-09-28,0.004080
43260962.000,2026-09-28,0.003688
43260963.000,2026-09-28,0.003329
43260964.000,2026-09-28,0.003000
43260965.000,2026-09-28,0.002699
43260966.000,2026-09-28,0.002425
43260967.000,2026-09-28,0.002176
43260968.000,2026-09-28,0.001949
43260969.000,2026-09-28,0.001744
43260970.000,2026-09-28,0.001557
43260971.000,2026-09-28,0.001389
43260972.000,2026-09-28,0.001237
43260973.000,2026-09-28,0.001100
43260974.000,2026-09-28,0.000976
43260975.000,2026-09-28,0.000866
43260976.000,2026-09-28,0.000766
43260977.000,2026-09-28,0.000677
43260978.000,2026-09-28,0.000598
43260979.000,2026-09-28,0.000527
43260980.000,2026-09-28,0.000464
43260981.000,2026-09-28,0.000407
43260982.000,2026-09-28,0.000357
43260983.000,2026-09-28,0.000313
43260984.000,2026-09-28,0.000274
43260985.000,2026-09-28,0.000240
43260986.000,2026-09-28,0.000209
43260987.000,2026-09-28,0.000182
43260988.000,2026-09-28,0.000159
43260989.000,2026-09-28,0.000138
43260990.000,2026-09-28,0.000119
43260991.000,2026-09-28,0.000103
43260992.000,2026-09-28,0.000088
43260993.000,2026-09-28,0.000074
43260994.000,2026-09-28,0.000060
43260995.000,2026-09-28,0.000044
43260996.000,2026-09-28,0.000024
43260997.000,2026-09-28,-0.000003
43260998.000,2026-09-28,-0.000042
43260999.000,2026-09-28,-0.000103
43261000.000,2026-09-28,-0.000195
43261000.556,2026-09-28,-0.000275
43261001.000,2026-09-28,-0.000338
43261002.000,2026-09-28,-0.000556
43261003.000,2026-09-28,-0.000883
43261004.000,2026-09-28,-0.001366
43261005.000,2026-09-28,-0.002067
43261006.000,2026-09-28,-0.003062
43261007.000,2026-09-28,-0.004448
43261008.000,2026-09-28,-0.006340
43261009.000,2026-09-28,-0.008869
43261010.000,2026-09-28,-0.012177
43261011.000,2026-09-28,-0.016414
43261012.000,2026-09-28,-0.021719
43261013.000,2026-09-28,-0.028214
43261014.000,2026-09-28,-0.035984
43261015.000,2026-09-28,-0.045059
43261016.000,2026-09-28,-0.055394
43261017.000,2026-09-28,-0.066860
43261018.000,2026-09-28,-0.079232
43261019.000,2026-09-28,-0.092185
43261020.000,2026-09-28,-0.105305
43261021.000,2026-09-28,-0.118103
43261022.000,2026-09-28,-0.130048
43261023.000,2026-09-28,-0.140596
43261024.000,2026-09-28,-0.149234
43261025.000,2026-09-28,-0.155517
43261026.000,2026-09-28,-0.159112
43261027.000,2026-09-28,-0.159814
43261028.000,2026-09-28,-0.157573
43261029.000,2026-09-28,-0.152488
43261030.000,2026-09-28,-0.144790
43261031.000,2026-09-28,-0.134817
43261032.000,2026-09-28,-0.122960
43261033.000,2026-09-28,-0.109620
43261034.000,2026-09-28,-0.095136
43261035.000,2026-09-28,-0.079735
43261036.000,2026-09-28,-0.063464
43261037.000,2026-09-28,-0.046149
43261038.000,2026-09-28,-0.027356
43261039.000,2026-09-28,-0.006380
43261040.000,2026-09-28,0.017747
43261041.000,2026-09-28,0.046210
43261042.000,2026-09-28,0.080325
43261043.000,2026-09-28,0.121422
43261044.000,2026-09-28,0.170681
43261045.000,2026-09-28,0.228944
43261046.000,2026-09-28,0.296512
43261047.000,2026-09-28,0.372956
43261048.000,2026-09-28,0.456971
43261049.000,2026-09-28,0.546303
43261050.000,2026-09-28,0.637775
43261051.000,2026-09-28,0.727430
43261052.000,2026-09-28,0.810797
43261053.000,2026-09-28,0.883248
43261054.000,2026-09-28,0.940423
43261055.000,2026-09-28,0.978663
43261056.000,2026-09-28,0.995389
43261057.000,2026-09-28,0.989384
43261058.000,2026-09-28,0.960920
43261059.000,2026-09-28,0.911726
43261060.000,2026-09-28,0.844791
43261061.000,2026-09-28,0.764040
43261062.000,2026-09-28,0.673924
43261063.000,2026-09-28,0.578992
43261064.000,2026-09-28,0.483495
43261065.000,2026-09-28,0.391062
43261066.000,2026-09-28,0.304503
43261067.000,2026-09-28,0.225713
43261068.000,2026-09-28,0.155695
43261069.000,2026-09-28,0.094671
43261070.000,2026-09-28,0.042248
43261071.000,2026-09-28,-0.002390
43261072.000,2026-09-28,-0.040299
43261073.000,2026-09-28,-0.072603
43261074.000,2026-09-28,-0.100372
43261075.000,2026-09-28,-0.124534
43261076.000,2026-09-28,-0.145828
43261077.000,2026-09-28,-0.164788
43261078.000,2026-09-28,-0.181756
43261079.000,2026-09-28,-0.196905
43261080.000,2026-09-28,-0.210279
43261081.000,2026-09-28,-0.221826
43261082.000,2026-09-28,-0.231439
43261083.000,2026-09-28,-0.238985
43261084.000,2026-09-28,-0.244339
43261085.000,2026-09-28,-0.247400
43261086.000,2026-09-28,-0.248110
43261087.000,2026-09-28,-0.246462
43261088.000,2026-09-28,-0.242510
43261089.000,2026-09-28,-0.236365
43261090.000,2026-09-28,-0.228195
43261091.000,2026-09-28,-0.218215
43261092.000,2026-09-28,-0.206684
43261093.000,2026-09-28,-0.193887
43261094.000,2026-09-28,-0.180128
43261095.000,2026-09-28,-0.165719
43261096.000,2026-09-28,-0.150964
43261097.000,2026-09-28,-0.136151
43261098.000,2026-09-28,-0.121544
43261099.000,2026-09-28,-0.107375
43261100.000,2026-09-28,-0.093840
43261100.611,2026-09-28,-0.086046
43261101.000,2026-09-28,-0.081094
43261102.000,2026-09-28,-0.069250
43261103.000,2026-09-28,-0.058385
43261104.000,2026-09-28,-0.048540
43261105.000,2026-09-28,-0.039722
43261106.000,2026-09-28,-0.031913
43261107.000,2026-09-28,-0.025069
43261108.000,2026-09-28,-0.019129
43261109.000,2026-09-28,-0.014020
43261110.000,2026-09-28,-0.009663
43261111.000,2026-09-28,-0.005971
43261112.000,2026-09-28,-0.002861
43261113.000,2026-09-28,-0.000251
43261114.000,2026-09-28,0.001936
43261115.000,2026-09-28,0.003772
43261116.000,2026-09-28,0.005319
43261117.000,2026-09-28,0.006634
43261118.000,2026-09-28,0.007766
43261119.000,2026-09-28,0.008755
43261120.000,2026-09-28,0.009636
43261121.000,2026-09-28,0.010439
43261122.000,2026-09-28,0.011186
43261123.000,2026-09-28,0.011897
43261124.000,2026-09-28,0.012585
43261125.000,2026-09-28,0.013264
43261126.000,2026-09-28,0.013942
43261127.000,2026-09-28,0.014627
43261128.000,2026-09-28,0.015324
43261129.000,2026-09-28,0.016037
43261130.000,2026-09-28,0.016769
43261131.000,2026-09-28,0.017524
43261132.000,2026-09-28,0.018303
43261133.000,2026-09-28,0.019107
43261134.000,2026-09-28,0.019939
43261135.000,2026-09-28,0.020800
43261136.000,2026-09-28,0.021689
43261137.000,2026-09-28,0.022609
43261138.000,2026-09-28,0.023560
43261139.000,2026-09-28,0.024543
43261140.000,2026-09-28,0.025558
43261141.000,2026-09-28,0.026607
43261142.000,2026-09-28,0.027690
43261143.000,2026-09-28,0.028807
43261144.000,2026-09-28,0.029960
43261145.000,2026-09-28,0.031149
43261146.000,2026-09-28,0.032375
43261147.000,2026-09-28,0.033637
43261148.000,2026-09-28,0.034938
43261149.000,2026-09-28,0.036277
43261150.000,2026-09-28,0.037655
43261151.000,2026-09-28,0.039073
43261152.000,2026-09-28,0.040531
43261153.000,2026-09-28,0.042030
43261154.000,2026-09-28,0.043570
43261155.000,2026-09-28,0.045151
43261156.000,2026-09-28,0.046775
43261157.000,2026-09-28,0.048441
43261158.000,2026-09-28,0.050150
43261159.000,2026-09-28,0.051903
43261160.000,2026-09-28,0.053699
43261161.000,2026-09-28,0.055539
43261162.000,2026-09-28,0.057424
43261163.000,2026-09-28,0.059352
43261164.000,2026-09-28,0.061326
43261165.000,2026-09-28,0.063344
43261166.000,2026-09-28,0.065407
43261167.000,2026-09-28,0.067515
43261168.000,2026-09-28,0.069669
43261169.000,2026-09-28,0.071867
43261170.000,2026-09-28,0.074110
43261171.000,2026-09-28,0.076398
43261172.000,2026-09-28,0.078731
43261173.000,2026-09-28,0.081108
43261174.000,2026-09-28,0.083529
43261175.000,2026-09-28,0.085994
43261176.000,2026-09-28,0.088503
43261177.000,2026-09-28,0.091055
43261178.000,2026-09-28,0.093649
43261179.000,2026-09-28,0.096285
43261180.000,2026-09-28,0.098963
43261181.000,2026-09-28,0.101682
43261182.000,2026-09-28,0.104441
43261183.000,2026-09-28,0.107239
43261184.000,2026-09-28,0.110075
43261185.000,2026-09-28,0.112949
43261186.000,2026-09-28,0.115860
43261187.000,2026-09-28,0.118806
43261188.000,2026-09-28,0.121787
43261189.000,2026-09-28,0.124800
43261190.000,2026-09-28,0.127846
43261191.000,2026-09-28,0.130923
43261192.000,2026-09-28,0.134029
43261193.000,2026-09-28,0.137163
43261194.000,2026-09-28,0.140323
43261195.000,2026-09-28,0.143509
43261196.000,2026-09-28,0.146717
43261197.000,2026-09-28,0.149948
43261198.000,2026-09-28,0.153198
43261199.000,2026-09-28,0.156467
43261200.000,2026-09-28,0.159752
43261200.667,2026-09-28,0.161953
43261201.000,2026-09-28,0.163051
43261202.000,2026-09-28,0.166362
43261203.000,2026-09-28,0.169683
43261204.000,2026-09-28,0.173012
43261205.000,2026-09-28,0.176346
43261206.000,2026-09-28,0.179683
43261207.000,2026-09-28,0.183022
43261208.000,2026-09-28,0.186359
43261209.000,2026-09-28,0.189694
43261210.000,2026-09-28,0.193022
43261211.000,2026-09-28,0.196343
43261212.000,2026-09-28,0.199653
43261213.000,2026-09-28,0.202951
43261214.000,2026-09-28,0.206233
43261215.000,2026-09-28,0.209497
43261216.000,2026-09-28,0.212742
43261217.000,2026-09-28,0.215963
43261218.000,2026-09-28,0.219160
43261219.000,2026-09-28,0.222329
43261220.000,2026-09-28,0.225468
43261221.000,2026-09-28,0.228573
43261222.000,2026-09-28,0.231644
43261223.000,2026-09-28,0.234677
43261224.000,2026-09-28,0.237669
43261225.000,2026-09-28,0.240619
43261226.000,2026-09-28,0.243523
43261227.000,2026-09-28,0.246379
43261228.000,2026-09-28,0.249185
43261229.000,2026-09-28,0.251938
43261230.000,2026-09-28,0.254636
43261231.000,2026-09-28,0.257277
43261232.000,2026-09-28,0.259857
43261233.000,2026-09-28,0.262375
43261234.000,2026-09-28,0.264829
43261235.000,2026-09-28,0.267216
43261236.000,2026-09-28,0.269534
43261237.000,2026-09-28,0.271780
43261238.000,2026-09-28,0.273954
43261239.000,2026-09-28,0.276052
43261240.000,2026-09-28,0.278073
43261241.000,2026-09-28,0.280015
43261242.000,2026-09-28,0.281876
43261243.000,2026-09-28,0.283655
43261244.000,2026-09-28,0.285349
43261245.000,2026-09-28,0.286957
43261246.000,2026-09-28,0.288477
43261247.000,2026-09-28,0.289909
43261248.000,2026-09-28,0.291250
43261249.000,2026-09-28,0.292499
43261250.000,2026-09-28,0.293656
43261251.000,2026-09-28,0.294718
43261252.000,2026-09-28,0.295686
43261253.000,2026-09-28,0.296558
43261254.000,2026-09-28,0.297332
43261255.000,2026-09-28,0.298010
43261256.000,2026-09-28,0.298589
43261257.000,2026-09-28,0.299069
43261258.000,2026-09-28,0.299450
43261259.000,2026-09-28,0.299732
43261260.000,2026-09-28,0.299913
43261261.000,2026-09-28,0.299995
43261262.000,2026-09-28,0.299977
43261263.000,2026-09-28,0.299858
43261264.000,2026-09-28,0.299640
43261265.000,2026-09-28,0.299322
43261266.000,2026-09-28,0.298905
43261267.000,2026-09-28,0.298389
43261268.000,2026-09-28,0.297775
43261269.000,2026-09-28,0.297063
43261270.000,2026-09-28,0.296254
43261271.000,2026-09-28,0.295349
43261272.000,2026-09-28,0.294349
43261273.000,2026-09-28,0.293255
43261274.000,2026-09-28,0.292067
43261275.000,2026-09-28,0.290788
43261276.000,2026-09-28,0.289418
43261277.000,2026-09-28,0.287958
43261278.000,2026-09-28,0.286411
43261279.000,2026-09-28,0.284778
43261280.000,2026-09-28,0.283059
43261281.000,2026-09-28,0.281258
43261282.000,2026-09-28,0.279375
43261283.000,2026-09-28,0.277413
43261284.000,2026-09-28,0.275373
43261285.000,2026-09-28,0.273257
43261286.000,2026-09-28,0.271068
43261287.000,2026-09-28,0.268807
43261288.000,2026-09-28,0.266477
43261289.000,2026-09-28,0.264079
43261290.000,2026-09-28,0.261616
43261291.000,2026-09-28,0.259090
43261292.000,2026-09-28,0.256503
43261293.000,2026-09-28,0.253858
43261294.000,2026-09-28,0.251157
43261295.000,2026-09-28,0.248402
43261296.000,2026-09-28,0.245597
43261297.000,2026-09-28,0.242742
43261298.000,2026-09-28,0.239842
43261299.000,2026-09-28,0.236897
43261300.000,2026-09-28,0.233912
43261300.723,2026-09-28,0.231726
43261301.000,2026-09-28,0.230887
43261302.000,2026-09-28,0.227826
43261303.000,2026-09-28,0.224732
43261304.000,2026-09-28,0.221606
43261305.000,2026-09-28,0.218452
43261306.000,2026-09-28,0.215271
43261307.000,2026-09-28,0.212067
43261308.000,2026-09-28,0.208841
43261309.000,2026-09-28,0.205597
43261310.000,2026-09-28,0.202336
43261311.000,2026-09-28,0.199062
43261312.000,2026-09-28,0.195775
43261313.000,2026-09-28,0.192480
43261314.000,2026-09-28,0.189177
43261315.000,2026-09-28,0.185870
43261316.000,2026-09-28,0.182561
43261317.000,2026-09-28,0.179251
43261318.000,2026-09-28,0.175944
43261319.000,2026-09-28,0.172640
43261320.000,2026-09-28,0.169343
43261321.000,2026-09-28,0.166054
43261322.000,2026-09-28,0.162776
43261323.000,2026-09-28,0.159509
43261324.000,2026-09-28,0.156257
43261325.000,2026-09-28,0.153021
43261326.000,2026-09-28,0.149802
43261327.000,2026-09-28,0.146603
43261328.000,2026-09-28,0.143426
43261329.000,2026-09-28,0.140270
43261330.000,2026-09-28,0.137140
43261331.000,2026-09-28,0.134035
43261332.000,2026-09-28,0.130957
43261333.000,2026-09-28,0.127908
43261334.000,2026-09-28,0.124889
43261335.000,2026-09-28,0.121901
43261336.000,2026-09-28,0.118946
43261337.000,2026-09-28,0.116024
43261338.000,2026-09-28,0.113137
43261339.000,2026-09-28,0.110285
43261340.000,2026-09-28,0.107470
43261341.000,2026-09-28,0.104693
43261342.000,2026-09-28,0.101954
43261343.000,2026-09-28,0.099254
43261344.000,2026-09-28,0.096594
43261345.000,2026-09-28,0.093974
43261346.000,2026-09-28,0.091396
43261347.000,2026-09-28,0.088859
43261348.000,2026-09-28,0.086364
43261349.000,2026-09-28,0.083912
43261350.000,2026-09-28,0.081502
43261351.000,2026-09-28,0.079136
43261352.000,2026-09-28,0.076814
43261353.000,2026-09-28,0.074535
43261354.000,2026-09-28,0.072300
43261355.000,2026-09-28,0.070110
43261356.000,2026-09-28,0.067963
43261357.000,2026-09-28,0.065861
43261358.000,2026-09-28,0.063802
43261359.000,2026-09-28,0.061788
43261360.000,2026-09-28,0.059818
43261361.000,2026-09-28,0.057892
43261362.000,2026-09-28,0.056010
43261363.000,2026-09-28,0.054171
43261364.000,2026-09-28,0.052375
43261365.000,2026-09-28,0.050622
43261366.000,2026-09-28,0.048912
43261367.000,2026-09-28,0.047244
43261368.000,2026-09-28,0.045619
43261369.000,2026-09-28,0.044034
43261370.000,2026-09-28,0.042491
43261371.000,2026-09-28,0.040989
43261372.000,2026-09-28,0.039527
43261373.000,2026-09-28,0.038104
43261374.000,2026-09-28,0.036721
43261375.000,2026-09-28,0.035377
43261376.000,2026-09-28,0.034070
43261377.000,2026-09-28,0.032801
43261378.000,2026-09-28,0.031569
43261379.000,2026-09-28,0.030374
43261380.000,2026-09-28,0.029214
43261381.000,2026-09-28,0.028089
43261382.000,2026-09-28,0.026999
43261383.000,2026-09-28,0.025943
43261384.000,2026-09-28,0.024920
43261385.000,2026-09-28,0.023929
43261386.000,2026-09-28,0.022971
43261387.000,2026-09-28,0.022043
43261388.000,2026-09-28,0.021146
43261389.000,2026-09-28,0.020279
43261390.000,2026-09-28,0.019442
43261391.000,2026-09-28,0.018632
43261392.000,2026-09-28,0.017851
43261393.000,2026-09-28,0.017097
43261394.000,2026-09-28,0.016369
43261395.000,2026-09-28,0.015667
43261396.000,2026-09-28,0.014991
43261397.000,2026-09-28,0.014339
43261398.000,2026-09-28,0.013711
43261399.000,2026-09-28,0.013106
43261400.000,2026-09-28,0.012524
43261400.778,2026-09-28,0.012088
43261401.000,2026-09-28,0.011963
43261402.000,2026-09-28,0.011424
43261403.000,2026-09-28,0.010906
43261404.000,2026-09-28,0.010408
43261405.000,2026-09-28,0.009929
43261406.000,2026-09-28,0.009469
43261407.000,2026-09-28,0.009028
43261408.000,2026-09-28,0.008604
43261409.000,2026-09-28,0.008197
43261410.000,2026-09-28,0.007807
43261411.000,2026-09-28,0.007433
43261412.000,2026-09-28,0.007075
43261413.000,2026-09-28,0.006731
43261414.000,2026-09-28,0.006403
43261415.000,2026-09-28,0.006088
43261416.000,2026-09-28,0.005787
43261417.000,2026-09-28,0.005498
43261418.000,2026-09-28,0.005223
43261419.000,2026-09-28,0.004959
43261420.000,2026-09-28,0.004708
43261421.000,2026-09-28,0.004467
43261422.000,2026-09-28,0.004238
43261423.000,2026-09-28,0.004019
43261424.000,2026-09-28,0.003810
43261425.000,2026-09-28,0.003611
43261426.000,2026-09-28,0.003421
43261427.000,2026-09-28,0.003239
43261428.000,2026-09-28,0.003067
43261429.000,2026-09-28,0.002903
43261430.000,2026-09-28,0.002746
43261431.000,2026-09-28,0.002597
43261432.000,2026-09-28,0.002456
43261433.000,2026-09-28,0.002321
43261434.000,2026-09-28,0.002193
43261435.000,2026-09-28,0.002071
43261436.000,2026-09-28,0.001956
43261437.000,2026-09-28,0.001846
43261438.000,2026-09-28,0.001742
43261439.000,2026-09-28,0.001643
43261440.000,2026-09-28,0.001549
43261441.000,2026-09-28,0.001460
43261442.000,2026-09-28,0.001376
43261443.000,2026-09-28,0.001296
43261444.000,2026-09-28,0.001221
43261445.000,2026-09-28,0.001149
43261446.000,2026-09-28,0.001082
43261447.000,2026-09-28,0.001017
43261448.000,2026-09-28,0.000957
43261449.000,2026-09-28,0.000900
43261450.000,2026-09-28,0.000845
43261451.000,2026-09-28,0.000794
43261452.000,2026-09-28,0.000746
43261453.000,2026-09-28,0.000700
43261454.000,2026-09-28,0.000657
43261455.000,2026-09-28,0.000617
43261456.000,2026-09-28,0.000578
43261457.000,2026-09-28,0.000542
43261458.000,2026-09-28,0.000508
43261459.000,2026-09-28,0.000476
43261460.000,2026-09-28,0.000446
43261461.000,2026-09-28,0.000418
43261462.000,2026-09-28,0.000391
43261463.000,2026-09-28,0.000366
43261464.000,2026-09-28,0.000342
43261465.000,2026-09-28,0.000320
43261466.000,2026-09-28,0.000299
43261467.000,2026-09-28,0.000280
43261468.000,2026-09-28,0.000261
43261469.000,2026-09-28,0.000244
43261470.000,2026-09-28,0.000228
43261471.000,2026-09-28,0.000213
43261472.000,2026-09-28,0.000198
43261473.000,2026-09-28,0.000185
43261474.000,2026-09-28,0.000172
43261475.000,2026-09-28,0.000161
43261476.000,2026-09-28,0.000150
43261477.000,2026-09-28,0.000139
43261478.000,2026-09-28,0.000130
43261479.000,2026-09-28,0.000121
43261480.000,2026-09-28,0.000112
43261481.000,2026-09-28,0.000105
43261482.000,2026-09-28,0.000097
43261483.000,2026-09-28,0.000090
43261484.000,2026-09-28,0.000084
43261485.000,2026-09-28,0.000078
43261486.000,2026-09-28,0.000072
43261487.000,2026-09-28,0.000067
43261488.000,2026-09-28,0.000062
43261489.000,2026-09-28,0.000058
43261490.000,2026-09-28,0.000054
43261491.000,2026-09-28,0.000050
43261492.000,2026-09-28,0.000046
43261493.000,2026-09-28,0.000043
43261494.000,2026-09-28,0.000040
43261495.000,2026-09-28,0.000037
43261496.000,2026-09-28,0.000034
43261497.000,2026-09-28,0.000000
43261498.000,2026-09-28,0.000000
43261499.000,2026-09-28,0.000000
43261500.000,2026-09-28,0.000000
43261500.834,2026-09-28,0.000001
43261501.000,2026-09-28,0.000001
43261502.000,2026-09-28,0.000001
43261503.000,2026-09-28,0.000001
43261504.000,2026-09-28,0.000001
43261505.000,2026-09-28,0.000001
43261506.000,2026-09-28,0.000001
43261507.000,2026-09-28,0.000002
43261508.000,2026-09-28,0.000002
43261509.000,2026-09-28,0.000003
43261510.000,2026-09-28,0.000003
43261511.000,2026-09-28,0.000004
43261512.000,2026-09-28,0.000004
43261513.000,2026-09-28,0.000005
43261514.000,2026-09-28,0.000006
43261515.000,2026-09-28,0.000007
43261516.000,2026-09-28,0.000009
43261517.000,2026-09-28,0.000010
43261518.000,2026-09-28,0.000012
43261519.000,2026-09-28,0.000014
43261520.000,2026-09-28,0.000017
43261521.000,2026-09-28,0.000020
43261522.000,2026-09-28,0.000023
43261523.000,2026-09-28,0.000027
43261524.000,2026-09-28,0.000032
43261525.000,2026-09-28,0.000037
43261526.000,2026-09-28,0.000044
43261527.000,2026-09-28,0.000051
43261528.000,2026-09-28,0.000059
43261529.000,2026-09-28,0.000069
43261530.000,2026-09-28,0.000080
43261531.000,2026-09-28,0.000093
43261532.000,2026-09-28,0.000108
43261533.000,2026-09-28,0.000125
43261534.000,2026-09-28,0.000144
43261535.000,2026-09-28,0.000166
43261536.000,2026-09-28,0.000191
43261537.000,2026-09-28,0.000219
43261538.000,2026-09-28,0.000252
43261539.000,2026-09-28,0.000288
43261540.000,2026-09-28,0.000330
43261541.000,2026-09-28,0.000376
43261542.000,2026-09-28,0.000429
43261543.000,2026-09-28,0.000489
43261544.000,2026-09-28,0.000556
43261545.000,2026-09-28,0.000631
43261546.000,2026-09-28,0.000715
43261547.000,2026-09-28,0.000809
43261548.000,2026-09-28,0.000914
43261549.000,2026-09-28,0.001032
43261550.000,2026-09-28,0.001162
43261551.000,2026-09-28,0.001307
43261552.000,2026-09-28,0.001469
43261553.000,2026-09-28,0.001647
43261554.000,2026-09-28,0.001844
43261555.000,2026-09-28,0.002062
43261556.000,2026-09-28,0.002302
43261557.000,2026-09-28,0.002566
43261558.000,2026-09-28,0.002855
43261559.000,2026-09-28,0.003173
43261560.000,2026-09-28,0.003521
43261561.000,2026-09-28,0.003901
43261562.000,2026-09-28,0.004315
43261563.000,2026-09-28,0.004767
43261564.000,2026-09-28,0.005257
43261565.000,2026-09-28,0.005789
43261566.000,2026-09-28,0.006366
43261567.000,2026-09-28,0.006989
43261568.000,2026-09-28,0.007661
43261569.000,2026-09-28,0.008386
43261570.000,2026-09-28,0.009165
43261571.000,2026-09-28,0.010001
43261572.000,2026-09-28,0.010897
43261573.000,2026-09-28,0.011856
43261574.000,2026-09-28,0.012879
43261575.000,2026-09-28,0.013969
43261576.000,2026-09-28,0.015129
43261577.000,2026-09-28,0.016361
43261578.000,2026-09-28,0.017666
43261579.000,2026-09-28,0.019046
43261580.000,2026-09-28,0.020503
43261581.000,2026-09-28,0.022038
43261582.000,2026-09-28,0.023653
43261583.000,2026-09-28,0.025347
43261584.000,2026-09-28,0.027122
43261585.000,2026-09-28,0.028977
43261586.000,2026-09-28,0.030913
43261587.000,2026-09-28,0.032928
43261588.000,2026-09-28,0.035022
43261589.000,2026-09-28,0.037192
43261590.000,2026-09-28,0.039438
43261591.000,2026-09-28,0.041756
43261592.000,2026-09-28,0.044143
43261593.000,2026-09-28,0.046597
43261594.000,2026-09-28,0.049114
43261595.000,2026-09-28,0.051688
43261596.000,2026-09-28,0.054315
43261597.000,2026-09-28,0.056990
43261598.000,2026-09-28,0.059706
43261599.000,2026-09-28,0.062458
43261600.000,2026-09-28,0.065239
43261600.889,2026-09-28,0.067731
43261601.000,2026-09-28,0.068041
43261602.000,2026-09-28,0.070856
43261603.000,2026-09-28,0.073676
43261604.000,2026-09-28,0.076494
43261605.000,2026-09-28,0.079299
43261606.000,2026-09-28,0.082084
43261607.000,2026-09-28,0.084839
43261608.000,2026-09-28,0.087554
43261609.000,2026-09-28,0.090221
43261610.000,2026-09-28,0.092829
43261611.000,2026-09-28,0.095369
43261612.000,2026-09-28,0.097831
43261613.000,2026-09-28,0.100207
43261614.000,2026-09-28,0.102486
43261615.000,2026-09-28,0.104660
43261616.000,2026-09-28,0.106720
43261617.000,2026-09-28,0.108657
43261618.000,2026-09-28,0.110463
43261619.000,2026-09-28,0.112132
43261620.000,2026-09-28,0.113656
43261621.000,2026-09-28,0.115028
43261622.000,2026-09-28,0.116242
43261623.000,2026-09-28,0.117293
43261624.000,2026-09-28,0.118178
43261625.000,2026-09-28,0.118891
43261626.000,2026-09-28,0.119429
43261627.000,2026-09-28,0.119791
43261628.000,2026-09-28,0.119975
43261629.000,2026-09-28,0.119980
43261630.000,2026-09-28,0.119806
43261631.000,2026-09-28,0.119454
43261632.000,2026-09-28,0.118925
43261633.000,2026-09-28,0.118223
43261634.000,2026-09-28,0.117349
43261635.000,2026-09-28,0.116309
43261636.000,2026-09-28,0.115106
43261637.000,2026-09-28,0.113746
43261638.000,2026-09-28,0.112235
43261639.000,2026-09-28,0.110580
43261640.000,2026-09-28,0.108787
43261641.000,2026-09-28,0.106864
43261642.000,2026-09-28,0.104819
43261643.000,2026-09-28,0.102661
43261644.000,2026-09-28,0.100397
43261645.000,2026-09-28,0.098038
43261646.000,2026-09-28,0.095593
43261647.000,2026-09-28,0.093070
43261648.000,2026-09-28,0.090480
43261649.000,2026-09-28,0.087831
43261650.000,2026-09-28,0.085133
43261651.000,2026-09-28,0.082396
43261652.000,2026-09-28,0.079629
43261653.000,2026-09-28,0.076841
43261654.000,2026-09-28,0.074041
43261655.000,2026-09-28,0.071238
43261656.000,2026-09-28,0.068439
43261657.000,2026-09-28,0.065653
43261658.000,2026-09-28,0.062887
43261659.000,2026-09-28,0.060149
43261660.000,2026-09-28,0.057445
43261661.000,2026-09-28,0.054781
43261662.000,2026-09-28,0.052164
43261663.000,2026-09-28,0.049599
43261664.000,2026-09-28,0.047090
43261665.000,2026-09-28,0.044642
43261666.000,2026-09-28,0.042259
43261667.000,2026-09-28,0.039944
43261668.000,2026-09-28,0.037701
43261669.000,2026-09-28,0.035531
43261670.000,2026-09-28,0.033436
43261671.000,2026-09-28,0.031419
43261672.000,2026-09-28,0.029480
43261673.000,2026-09-28,0.027620
43261674.000,2026-09-28,0.025839
43261675.000,2026-09-28,0.024137
43261676.000,2026-09-28,0.022515
43261677.000,2026-09-28,0.020970
43261678.000,2026-09-28,0.019503
43261679.000,2026-09-28,0.018112
43261680.000,2026-09-28,0.016795
43261681.000,2026-09-28,0.015551
43261682.000,2026-09-28,0.014378
43261683.000,2026-09-28,0.013274
43261684.000,2026-09-28,0.012237
43261685.000,2026-09-28,0.011264
43261686.000,2026-09-28,0.010354
43261687.000,2026-09-28,0.009503
43261688.000,2026-09-28,0.008709
43261689.000,2026-09-28,0.007970
43261690.000,2026-09-28,0.007283
43261691.000,2026-09-28,0.006645
43261692.000,2026-09-28,0.006054
43261693.000,2026-09-28,0.005508
43261694.000,2026-09-28,0.005004
43261695.000,2026-09-28,0.004539
43261696.000,2026-09-28,0.004111
43261697.000,2026-09-28,0.003719
43261698.000,2026-09-28,0.003358
43261699.000,2026-09-28,0.003029
43261700.000,2026-09-28,0.002727
43261700.945,2026-09-28,0.002468
43261701.000,2026-09-28,0.002452
43261702.000,2026-09-28,0.002202
43261703.000,2026-09-28,0.001974
43261704.000,2026-09-28,0.001767
43261705.000,2026-09-28,0.001580
43261706.000,2026-09-28,0.001410
43261707.000,2026-09-28,0.001257
43261708.000,2026-09-28,0.001119
43261709.000,2026-09-28,0.000994
43261710.000,2026-09-28,0.000882
43261711.000,2026-09-28,0.000782
43261712.000,2026-09-28,0.000692
43261713.000,2026-09-28,0.000611
43261714.000,2026-09-28,0.000539
43261715.000,2026-09-28,0.000475
43261716.000,2026-09-28,0.000418
43261717.000,2026-09-28,0.000367
43261718.000,2026-09-28,0.000322
43261719.000,2026-09-28,0.000283
43261720.000,2026-09-28,0.000247
43261721.000,2026-09-28,0.000216
43261722.000,2026-09-28,0.000189
43261723.000,2026-09-28,0.000164
43261724.000,2026-09-28,0.000143
43261725.000,2026-09-28,0.000124
43261726.000,2026-09-28,0.000107
43261727.000,2026-09-28,0.000092
43261728.000,2026-09-28,0.000078
43261729.000,2026-09-28,0.000064
43261730.000,2026-09-28,0.000049
43261731.000,2026-09-28,0.000031
43261732.000,2026-09-28,0.000007
43261733.000,2026-09-28,-0.000027
43261734.000,2026-09-28,-0.000078
43261735.000,2026-09-28,-0.000157
43261736.000,2026-09-28,-0.000277
43261737.000,2026-09-28,-0.000462
43261738.000,2026-09-28,-0.000739
43261739.000,2026-09-28,-0.001149
43261740.000,2026-09-28,-0.001747
43261741.000,2026-09-28,-0.002600
43261742.000,2026-09-28,-0.003795
43261743.000,2026-09-28,-0.005435
43261744.000,2026-09-28,-0.007641
43261745.000,2026-09-28,-0.010547
43261746.000,2026-09-28,-0.014297
43261747.000,2026-09-28,-0.019031
43261748.000,2026-09-28,-0.024879
43261749.000,2026-09-28,-0.031942
43261750.000,2026-09-28,-0.040277
43261751.000,2026-09-28,-0.049881
43261752.000,2026-09-28,-0.060671
43261753.000,2026-09-28,-0.072479
43261754.000,2026-09-28,-0.085039
43261755.000,2026-09-28,-0.097995
43261756.000,2026-09-28,-0.110911
43261757.000,2026-09-28,-0.123290
43261758.000,2026-09-28,-0.134606
43261759.000,2026-09-28,-0.144337
43261760.000,2026-09-28,-0.152009
43261761.000,2026-09-28,-0.157229
43261762.000,2026-09-28,-0.159719
43261763.000,2026-09-28,-0.159337
43261764.000,2026-09-28,-0.156087
43261765.000,2026-09-28,-0.150114
43261766.000,2026-09-28,-0.141685
43261767.000,2026-09-28,-0.131148
43261768.000,2026-09-28,-0.118896
43261769.000,2026-09-28,-0.105302
43261770.000,2026-09-28,-0.090671
43261771.000,2026-09-28,-0.075174
43261772.000,2026-09-28,-0.058801
43261773.000,2026-09-28,-0.041313
43261774.000,2026-09-28,-0.022219
43261775.000,2026-09-28,-0.000765
43261776.000,2026-09-28,0.024048
43261777.000,2026-09-28,0.053408
43261778.000,2026-09-28,0.088610
43261779.000,2026-09-28,0.130927
43261780.000,2026-09-28,0.181451
43261781.000,2026-09-28,0.240909
43261782.000,2026-09-28,0.309471
43261783.000,2026-09-28,0.386574
43261784.000,2026-09-28,0.470797
43261785.000,2026-09-28,0.559799
43261786.000,2026-09-28,0.650368
43261787.000,2026-09-28,0.738574
43261788.000,2026-09-28,0.820033
43261789.000,2026-09-28,0.890263
43261790.000,2026-09-28,0.945086
43261791.000,2026-09-28,0.981044
43261792.000,2026-09-28,0.995747
43261793.000,2026-09-28,0.988132
43261794.000,2026-09-28,0.958571
43261795.000,2026-09-28,0.908828
43261796.000,2026-09-28,0.841864
43261797.000,2026-09-28,0.761520
43261798.000,2026-09-28,0.672127
43261799.000,2026-09-28,0.578100
43261800.000,2026-09-28,0.483554
43261801.000,2026-09-28,0.392013
43261801.001,2026-09-28,0.391965
43261802.000,2026-09-28,0.306207
43261803.000,2026-09-28,0.227993
43261804.000,2026-09-28,0.158366
43261805.000,2026-09-28,0.097562
43261806.000,2026-09-28,0.045220
43261807.000,2026-09-28,0.000564
43261808.000,2026-09-28,-0.037419
43261809.000,2026-09-28,-0.069823
43261810.000,2026-09-28,-0.097692
43261811.000,2026-09-28,-0.121944
43261812.000,2026-09-28,-0.143314
43261813.000,2026-09-28,-0.162346
43261814.000,2026-09-28,-0.179392
43261815.000,2026-09-28,-0.194642
43261816.000,2026-09-28,-0.208155
43261817.000,2026-09-28,-0.219894
43261818.000,2026-09-28,-0.229762
43261819.000,2026-09-28,-0.237635
43261820.000,2026-09-28,-0.243387
43261821.000,2026-09-28,-0.246916
43261822.000,2026-09-28,-0.248155
43261823.000,2026-09-28,-0.247088
43261824.000,2026-09-28,-0.243751
43261825.000,2026-09-28,-0.238239
43261826.000,2026-09-28,-0.230700
43261827.000,2026-09-28,-0.221330
43261828.000,2026-09-28,-0.210369
43261829.000,2026-09-28,-0.198085
43261830.000,2026-09-28,-0.184767
43261831.000,2026-09-28,-0.170716
43261832.000,2026-09-28,-0.156226
43261833.000,2026-09-28,-0.141584
43261834.000,2026-09-28,-0.127053
43261835.000,2026-09-28,-0.112868
43261836.000,2026-09-28,-0.099232
43261837.000,2026-09-28,-0.086310
43261838.000,2026-09-28,-0.074228
43261839.000,2026-09-28,-0.063076
43261840.000,2026-09-28,-0.052907
43261841.000,2026-09-28,-0.043741
43261842.000,2026-09-28,-0.035570
43261843.000,2026-09-28,-0.028362
43261844.000,2026-09-28,-0.022066
43261845.000,2026-09-28,-0.016616
43261846.000,2026-09-28,-0.011939
43261847.000,2026-09-28,-0.007953
43261848.000,2026-09-28,-0.004578
43261849.000,2026-09-28,-0.001733
43261850.000,2026-09-28,0.000658
43261851.000,2026-09-28,0.002668
43261852.000,2026-09-28,0.004361
43261853.000,2026-09-28,0.005796
43261854.000,2026-09-28,0.007023
43261855.000,2026-09-28,0.008086
43261856.000,2026-09-28,0.009022
43261857.000,2026-09-28,0.009863
43261858.000,2026-09-28,0.010635
43261859.000,2026-09-28,0.011358
43261860.000,2026-09-28,0.012049
43261861.000,2026-09-28,0.012722
43261862.000,2026-09-28,0.013387
43261863.000,2026-09-28,0.014052
43261864.000,2026-09-28,0.014725
43261865.000,2026-09-28,0.015409
43261866.000,2026-09-28,0.016110
43261867.000,2026-09-28,0.016829
43261868.000,2026-09-28,0.017570
43261869.000,2026-09-28,0.018334
43261870.000,2026-09-28,0.019122
43261871.000,2026-09-28,0.019936
43261872.000,2026-09-28,0.020778
43261873.000,2026-09-28,0.021647
43261874.000,2026-09-28,0.022544
43261875.000,2026-09-28,0.023472
43261876.000,2026-09-28,0.024429
43261877.000,2026-09-28,0.025417
43261878.000,2026-09-28,0.026437
43261879.000,2026-09-28,0.027488
43261880.000,2026-09-28,0.028573
43261881.000,2026-09-28,0.029691
43261882.000,2026-09-28,0.030842
43261883.000,2026-09-28,0.032028
43261884.000,2026-09-28,0.033250
43261885.000,2026-09-28,0.034506
43261886.000,2026-09-28,0.035799
43261887.000,2026-09-28,0.037129
43261888.000,2026-09-28,0.038496
43261889.000,2026-09-28,0.039900
43261890.000,2026-09-28,0.041342
43261891.000,2026-09-28,0.042824
43261892.000,2026-09-28,0.044343
43261893.000,2026-09-28,0.045903
43261894.000,2026-09-28,0.047502
43261895.000,2026-09-28,0.049141
43261896.000,2026-09-28,0.050821
43261897.000,2026-09-28,0.052541
43261898.000,2026-09-28,0.054303
43261899.000,2026-09-28,0.056106
43261900.000,2026-09-28,0.057950
43261901.000,2026-09-28,0.059836
43261901.056,2026-09-28,0.059944
43261902.000,2026-09-28,0.061764
43261903.000,2026-09-28,0.063734
43261904.000,2026-09-28,0.065746
43261905.000,2026-09-28,0.067800
43261906.000,2026-09-28,0.069897
43261907.000,2026-09-28,0.072036
43261908.000,2026-09-28,0.074218
43261909.000,2026-09-28,0.076441
43261910.000,2026-09-28,0.078707
43261911.000,2026-09-28,0.081014
43261912.000,2026-09-28,0.083363
43261913.000,2026-09-28,0.085753
43261914.000,2026-09-28,0.088184
43261915.000,2026-09-28,0.090655
43261916.000,2026-09-28,0.093166
43261917.000,2026-09-28,0.095717
43261918.000,2026-09-28,0.098307
43261919.000,2026-09-28,0.100936
43261920.000,2026-09-28,0.103602
43261921.000,2026-09-28,0.106305
43261922.000,2026-09-28,0.109044
43261923.000,2026-09-28,0.111819
43261924.000,2026-09-28,0.114629
43261925.000,2026-09-28,0.117472
43261926.000,2026-09-28,0.120348
43261927.000,2026-09-28,0.123255
43261928.000,2026-09-28,0.126193
43261929.000,2026-09-28,0.129161
43261930.000,2026-09-28,0.132156
43261931.000,2026-09-28,0.135179
43261932.000,2026-09-28,0.138227
43261933.000,2026-09-28,0.141299
43261934.000,2026-09-28,0.144394
43261935.000,2026-09-28,0.147511
43261936.000,2026-09-28,0.150647
43261937.000,2026-09-28,0.153802
43261938.000,2026-09-28,0.156973
43261939.000,2026-09-28,0.160159
43261940.000,2026-09-28,0.163358
43261941.000,2026-09-28,0.166569
43261942.000,2026-09-28,0.169789
43261943.000,2026-09-28,0.173016
43261944.000,2026-09-28,0.176250
43261945.000,2026-09-28,0.179487
43261946.000,2026-09-28,0.182726
43261947.000,2026-09-28,0.185964
43261948.000,2026-09-28,0.189200
43261949.000,2026-09-28,0.192432
43261950.000,2026-09-28,0.195657
43261951.000,2026-09-28,0.198874
43261952.000,2026-09-28,0.202079
43261953.000,2026-09-28,0.205271
43261954.000,2026-09-28,0.208448
43261955.000,2026-09-28,0.211606
43261956.000,2026-09-28,0.214745
43261957.000,2026-09-28,0.217861
43261958.000,2026-09-28,0.220953
43261959.000,2026-09-28,0.224017
43261960.000,2026-09-28,0.227052
43261961.000,2026-09-28,0.230056
43261962.000,2026-09-28,0.233025
43261963.000,2026-09-28,0.235958
43261964.000,2026-09-28,0.238852
43261965.000,2026-09-28,0.241705
43261966.000,2026-09-28,0.244515
43261967.000,2026-09-28,0.247278
43261968.000,2026-09-28,0.249994
43261969.000,2026-09-28,0.252660
43261970.000,2026-09-28,0.255272
43261971.000,2026-09-28,0.257831
43261972.000,2026-09-28,0.260332
43261973.000,2026-09-28,0.262774
43261974.000,2026-09-28,0.265154
43261975.000,2026-09-28,0.267472
43261976.000,2026-09-28,0.269724
43261977.000,2026-09-28,0.271908
43261978.000,2026-09-28,0.274024
43261979.000,2026-09-28,0.276068
43261980.000,2026-09-28,0.278038
43261981.000,2026-09-28,0.279934
43261982.000,2026-09-28,0.281754
43261983.000,2026-09-28,0.283495
43261984.000,2026-09-28,0.285156
43261985.000,2026-09-28,0.286736
43261986.000,2026-09-28,0.288232
43261987.000,2026-09-28,0.289645
43261988.000,2026-09-28,0.290972
43261989.000,2026-09-28,0.292211
43261990.000,2026-09-28,0.293363
43261991.000,2026-09-28,0.294426
43261992.000,2026-09-28,0.295398
43261993.000,2026-09-28,0.296279
43261994.000,2026-09-28,0.297069
43261995.000,2026-09-28,0.297765
43261996.000,2026-09-28,0.298368
43261997.000,2026-09-28,0.298878
43261998.000,2026-09-28,0.299292
43261999.000,2026-09-28,0.299612
43262000.000,2026-09-28,0.299836
43262001.000,2026-09-28,0.299965
43262001.112,2026-09-28,0.299969
43262002.000,2026-09-28,0.299999
43262003.000,2026-09-28,0.299937
43262004.000,2026-09-28,0.299779
43262005.000,2026-09-28,0.299525
43262006.000,2026-09-28,0.299177
43262007.000,2026-09-28,0.298733
43262008.000,2026-09-28,0.298194
43262009.000,2026-09-28,0.297562
43262010.000,2026-09-28,0.296835
43262011.000,2026-09-28,0.296015
43262012.000,2026-09-28,0.295104
43262013.000,2026-09-28,0.294100
43262014.000,2026-09-28,0.293006
43262015.000,2026-09-28,0.291823
43262016.000,2026-09-28,0.290550
43262017.000,2026-09-28,0.289191
43262018.000,2026-09-28,0.287745
43262019.000,2026-09-28,0.286214
43262020.000,2026-09-28,0.284600
43262021.000,2026-09-28,0.282904
43262022.000,2026-09-28,0.281128
43262023.000,2026-09-28,0.279272
43262024.000,2026-09-28,0.277340
43262025.000,2026-09-28,0.275332
43262026.000,2026-09-28,0.273250
43262027.000,2026-09-28,0.271096
43262028.000,2026-09-28,0.268873
43262029.000,2026-09-28,0.266581
43262030.000,2026-09-28,0.264224
43262031.000,2026-09-28,0.261803
43262032.000,2026-09-28,0.259320
43262033.000,2026-09-28,0.256777
43262034.000,2026-09-28,0.254177
43262035.000,2026-09-28,0.251521
43262036.000,2026-09-28,0.248813
43262037.000,2026-09-28,0.246054
43262038.000,2026-09-28,0.243247
43262039.000,2026-09-28,0.240393
43262040.000,2026-09-28,0.237496
43262041.000,2026-09-28,0.234558
43262042.000,2026-09-28,0.231580
43262043.000,2026-09-28,0.228566
43262044.000,2026-09-28,0.225518
43262045.000,2026-09-28,0.222438
43262046.000,2026-09-28,0.219329
43262047.000,2026-09-28,0.216192
43262048.000,2026-09-28,0.213031
43262049.000,2026-09-28,0.209848
43262050.000,2026-09-28,0.206645
43262051.000,2026-09-28,0.203424
43262052.000,2026-09-28,0.200188
43262053.000,2026-09-28,0.196940
43262054.000,2026-09-28,0.193680
43262055.000,2026-09-28,0.190413
43262056.000,2026-09-28,0.187139
43262057.000,2026-09-28,0.183861
43262058.000,2026-09-28,0.180582
43262059.000,2026-09-28,0.177303
43262060.000,2026-09-28,0.174027
43262061.000,2026-09-28,0.170755
43262062.000,2026-09-28,0.167489
43262063.000,2026-09-28,0.164233
43262064.000,2026-09-28,0.160987
43262065.000,2026-09-28,0.157753
43262066.000,2026-09-28,0.154533
43262067.000,2026-09-28,0.151330
43262068.000,2026-09-28,0.148144
43262069.000,2026-09-28,0.144977
43262070.000,2026-09-28,0.141832
43262071.000,2026-09-28,0.138709
43262072.000,2026-09-28,0.135610
43262073.000,2026-09-28,0.132537
43262074.000,2026-09-28,0.129491
43262075.000,2026-09-28,0.126473
43262076.000,2026-09-28,0.123485
43262077.000,2026-09-28,0.120528
43262078.000,2026-09-28,0.117602
43262079.000,2026-09-28,0.114710
43262080.000,2026-09-28,0.111853
43262081.000,2026-09-28,0.109030
43262082.000,2026-09-28,0.106243
43262083.000,2026-09-28,0.103494
43262084.000,2026-09-28,0.100782
43262085.000,2026-09-28,0.098109
43262086.000,2026-09-28,0.095475
43262087.000,2026-09-28,0.092882
43262088.000,2026-09-28,0.090328
43262089.000,2026-09-28,0.087816
43262090.000,2026-09-28,0.085346
43262091.000,2026-09-28,0.082918
43262092.000,2026-09-28,0.080532
43262093.000,2026-09-28,0.078188
43262094.000,2026-09-28,0.075888
43262095.000,2026-09-28,0.073631
43262096.000,2026-09-28,0.071418
43262097.000,2026-09-28,0.069248
43262098.000,2026-09-28,0.067121
43262099.000,2026-09-28,0.065039
43262100.000,2026-09-28,0.063000
43262101.000,2026-09-28,0.061005
43262101.167,2026-09-28,0.060678
43262102.000,2026-09-28,0.059053
43262103.000,2026-09-28,0.057145
43262104.000,2026-09-28,0.055281
43262105.000,2026-09-28,0.053459
43262106.000,2026-09-28,0.051681
43262107.000,2026-09-28,0.049946
43262108.000,2026-09-28,0.048253
43262109.000,2026-09-28,0.046603
43262110.000,2026-09-28,0.044994
43262111.000,2026-09-28,0.043426
43262112.000,2026-09-28,0.041899
43262113.000,2026-09-28,0.040413
43262114.000,2026-09-28,0.038967
43262115.000,2026-09-28,0.037560
43262116.000,2026-09-28,0.036192
43262117.000,2026-09-28,0.034862
43262118.000,2026-09-28,0.033571
43262119.000,2026-09-28,0.032316
43262120.000,2026-09-28,0.031099
43262121.000,2026-09-28,0.029917
43262122.000,2026-09-28,0.028771
43262123.000,2026-09-28,0.027660
43262124.000,2026-09-28,0.026583
43262125.000,2026-09-28,0.025539
43262126.000,2026-09-28,0.024529
43262127.000,2026-09-28,0.023551
43262128.000,2026-09-28,0.022604
43262129.000,2026-09-28,0.021688
43262130.000,2026-09-28,0.020803
43262131.000,2026-09-28,0.019947
43262132.000,2026-09-28,0.019120
43262133.000,2026-09-28,0.018322
43262134.000,2026-09-28,0.017551
43262135.000,2026-09-28,0.016807
43262136.000,2026-09-28,0.016089
43262137.000,2026-09-28,0.015397
43262138.000,2026-09-28,0.014730
43262139.000,2026-09-28,0.014087
43262140.000,2026-09-28,0.013468
43262141.000,2026-09-28,0.012872
43262142.000,2026-09-28,0.012298
43262143.000,2026-09-28,0.011746
43262144.000,2026-09-28,0.011215
43262145.000,2026-09-28,0.010705
43262146.000,2026-09-28,0.010214
43262147.000,2026-09-28,0.009743
43262148.000,2026-09-28,0.009290
43262149.000,2026-09-28,0.008856
43262150.000,2026-09-28,0.008439
43262151.000,2026-09-28,0.008039
43262152.000,2026-09-28,0.007656
43262153.000,2026-09-28,0.007288
43262154.000,2026-09-28,0.006936
43262155.000,2026-09-28,0.006599
43262156.000,2026-09-28,0.006276
43262157.000,2026-09-28,0.005967
43262158.000,2026-09-28,0.005671
43262159.000,2026-09-28,0.005388
43262160.000,2026-09-28,0.005118
43262161.000,2026-09-28,0.004860
43262162.000,2026-09-28,0.004613
43262163.000,2026-09-28,0.004377
43262164.000,2026-09-28,0.004152
43262165.000,2026-09-28,0.003937
43262166.000,2026-09-28,0.003732
43262167.000,2026-09-28,0.003537
43262168.000,2026-09-28,0.003351
43262169.000,2026-09-28,0.003173
43262170.000,2026-09-28,0.003004
43262171.000,2026-09-28,0.002843
43262172.000,2026-09-28,0.002690
43262173.000,2026-09-28,0.002544
43262174.000,2026-09-28,0.002406
43262175.000,2026-09-28,0.002274
43262176.000,2026-09-28,0.002148
43262177.000,2026-09-28,0.002029
43262178.000,2026-09-28,0.001916
43262179.000,2026-09-28,0.001809
43262180.000,2026-09-28,0.001707
43262181.000,2026-09-28,0.001610
43262182.000,2026-09-28,0.001518
43262183.000,2026-09-28,0.001431
43262184.000,2026-09-28,0.001349
43262185.000,2026-09-28,0.001271
43262186.000,2026-09-28,0.001197
43262187.000,2026-09-28,0.001127
43262188.000,2026-09-28,0.001061
43262189.000,2026-09-28,0.000998
43262190.000,2026-09-28,0.000939
43262191.000,2026-09-28,0.000883
43262192.000,2026-09-28,0.000830
43262193.000,2026-09-28,0.000779
43262194.000,2026-09-28,0.000732
43262195.000,2026-09-28,0.000688
43262196.000,2026-09-28,0.000645
43262197.000,2026-09-28,0.000606
43262198.000,2026-09-28,0.000568
43262199.000,2026-09-28,0.000533
43262200.000,2026-09-28,0.000500
43262201.000,2026-09-28,0.000468
43262201.223,2026-09-28,0.000462
43262202.000,2026-09-28,0.000439
43262203.000,2026-09-28,0.000411
43262204.000,2026-09-28,0.000385
43262205.000,2026-09-28,0.000360
43262206.000,2026-09-28,0.000337
43262207.000,2026-09-28,0.000315
43262208.000,2026-09-28,0.000295
43262209.000,2026-09-28,0.000275
43262210.000,2026-09-28,0.000257
43262211.000,2026-09-28,0.000240
43262212.000,2026-09-28,0.000225
43262213.000,2026-09-28,0.000210
43262214.000,2026-09-28,0.000196
43262215.000,2026-09-28,0.000183
43262216.000,2026-09-28,0.000170
43262217.000,2026-09-28,0.000159
43262218.000,2026-09-28,0.000148
43262219.000,2026-09-28,0.000138
43262220.000,2026-09-28,0.000128
43262221.000,2026-09-28,0.000120
43262222.000,2026-09-28,0.000111
43262223.000,2026-09-28,0.000104
43262224.000,2026-09-28,0.000096
43262225.000,2026-09-28,0.000090
43262226.000,2026-09-28,0.000083
43262227.000,2026-09-28,0.000077
43262228.000,2026-09-28,0.000072
43262229.000,2026-09-28,0.000067
43262230.000,2026-09-28,0.000062
43262231.000,2026-09-28,0.000058
43262232.000,2026-09-28,0.000053
43262233.000,2026-09-28,0.000049
43262234.000,2026-09-28,0.000046
43262235.000,2026-09-28,0.000043
43262236.000,2026-09-28,0.000039
43262237.000,2026-09-28,0.000037
43262238.000,2026-09-28,0.000034
43262239.000,2026-09-28,0.000000
43262240.000,2026-09-28,0.000000
43262241.000,2026-09-28,0.000000
43262242.000,2026-09-28,0.000000
43262243.000,2026-09-28,0.000001
43262244.000,2026-09-28,0.000001
43262245.000,2026-09-28,0.000001
43262246.000,2026-09-28,0.000001
43262247.000,2026-09-28,0.000001
43262248.000,2026-09-28,0.000001
43262249.000,2026-09-28,0.000002
43262250.000,2026-09-28,0.000002
43262251.000,2026-09-28,0.000002
43262252.000,2026-09-28,0.000003
43262253.000,2026-09-28,0.000004
43262254.000,2026-09-28,0.000004
43262255.000,2026-09-28,0.000005
43262256.000,2026-09-28,0.000006
43262257.000,2026-09-28,0.000007
43262258.000,2026-09-28,0.000008
43262259.000,2026-09-28,0.000010
43262260.000,2026-09-28,0.000012
43262261.000,2026-09-28,0.000014
43262262.000,2026-09-28,0.000016
43262263.000,2026-09-28,0.000019
43262264.000,2026-09-28,0.000023
43262265.000,2026-09-28,0.000026
43262266.000,2026-09-28,0.000031
43262267.000,2026-09-28,0.000036
43262268.000,2026-09-28,0.000042
43262269.000,2026-09-28,0.000049
43262270.000,2026-09-28,0.000057
43262271.000,2026-09-28,0.000067
43262272.000,2026-09-28,0.000078
43262273.000,2026-09-28,0.000090
43262274.000,2026-09-28,0.000104
43262275.000,2026-09-28,0.000120
43262276.000,2026-09-28,0.000139
43262277.000,2026-09-28,0.000160
43262278.000,2026-09-28,0.000184
43262279.000,2026-09-28,0.000211
43262280.000,2026-09-28,0.000242
43262281.000,2026-09-28,0.000277
43262282.000,2026-09-28,0.000317
43262283.000,2026-09-28,0.000362
43262284.000,2026-09-28,0.000413
43262285.000,2026-09-28,0.000470
43262286.000,2026-09-28,0.000534
43262287.000,2026-09-28,0.000606
43262288.000,2026-09-28,0.000687
43262289.000,2026-09-28,0.000777
43262290.000,2026-09-28,0.000878
43262291.000,2026-09-28,0.000991
43262292.000,2026-09-28,0.001116
43262293.000,2026-09-28,0.001255
43262294.000,2026-09-28,0.001410
43262295.000,2026-09-28,0.001581
43262296.000,2026-09-28,0.001770
43262297.000,2026-09-28,0.001979
43262298.000,2026-09-28,0.002209
43262299.000,2026-09-28,0.002463
43262300.000,2026-09-28,0.002741
43262301.000,2026-09-28,0.003047
43262301.278,2026-09-28,0.003140
43262302.000,2026-09-28,0.003381
43262303.000,2026-09-28,0.003746
43262304.000,2026-09-28,0.004145
43262305.000,2026-09-28,0.004579
43262306.000,2026-09-28,0.005051
43262307.000,2026-09-28,0.005564
43262308.000,2026-09-28,0.006120
43262309.000,2026-09-28,0.006721
43262310.000,2026-09-28,0.007371
43262311.000,2026-09-28,0.008071
43262312.000,2026-09-28,0.008824
43262313.000,2026-09-28,0.009634
43262314.000,2026-09-28,0.010502
43262315.000,2026-09-28,0.011431
43262316.000,2026-09-28,0.012424
43262317.000,2026-09-28,0.013483
43262318.000,2026-09-28,0.014611
43262319.000,2026-09-28,0.015809
43262320.000,2026-09-28,0.017080
43262321.000,2026-09-28,0.018426
43262322.000,2026-09-28,0.019848
43262323.000,2026-09-28,0.021348
43262324.000,2026-09-28,0.022927
43262325.000,2026-09-28,0.024586
43262326.000,2026-09-28,0.026326
43262327.000,2026-09-28,0.028146
43262328.000,2026-09-28,0.030047
43262329.000,2026-09-28,0.032029
43262330.000,2026-09-28,0.034090
43262331.000,2026-09-28,0.036230
43262332.000,2026-09-28,0.038446
43262333.000,2026-09-28,0.040736
43262334.000,2026-09-28,0.043098
43262335.000,2026-09-28,0.045529
43262336.000,2026-09-28,0.048024
43262337.000,2026-09-28,0.050580
43262338.000,2026-09-28,0.053192
43262339.000,2026-09-28,0.055855
43262340.000,2026-09-28,0.058562
43262341.000,2026-09-28,0.061309
43262342.000,2026-09-28,0.064087
43262343.000,2026-09-28,0.066891
43262344.000,2026-09-28,0.069712
43262345.000,2026-09-28,0.072542
43262346.000,2026-09-28,0.075374
43262347.000,2026-09-28,0.078198
43262348.000,2026-09-28,0.081005
43262349.000,2026-09-28,0.083786
43262350.000,2026-09-28,0.086532
43262351.000,2026-09-28,0.089232
43262352.000,2026-09-28,0.091878
43262353.000,2026-09-28,0.094460
43262354.000,2026-09-28,0.096966
43262355.000,2026-09-28,0.099389
43262356.000,2026-09-28,0.101718
43262357.000,2026-09-28,0.103944
43262358.000,2026-09-28,0.106058
43262359.000,2026-09-28,0.108050
43262360.000,2026-09-28,0.109913
43262361.000,2026-09-28,0.111639
43262362.000,2026-09-28,0.113220
43262363.000,2026-09-28,0.114648
43262364.000,2026-09-28,0.115919
43262365.000,2026-09-28,0.117025
43262366.000,2026-09-28,0.117963
43262367.000,2026-09-28,0.118727
43262368.000,2026-09-28,0.119315
43262369.000,2026-09-28,0.119723
43262370.000,2026-09-28,0.119950
43262371.000,2026-09-28,0.119994
43262372.000,2026-09-28,0.119855
43262373.000,2026-09-28,0.119535
43262374.000,2026-09-28,0.119033
43262375.000,2026-09-28,0.118353
43262376.000,2026-09-28,0.117498
43262377.000,2026-09-28,0.116471
43262378.000,2026-09-28,0.115276
43262379.000,2026-09-28,0.113920
43262380.000,2026-09-28,0.112408
43262381.000,2026-09-28,0.110747
43262382.000,2026-09-28,0.108943
43262383.000,2026-09-28,0.107005
43262384.000,2026-09-28,0.104941
43262385.000,2026-09-28,0.102760
43262386.000,2026-09-28,0.100470
43262387.000,2026-09-28,0.098080
43262388.000,2026-09-28,0.095601
43262389.000,2026-09-28,0.093042
43262390.000,2026-09-28,0.090413
43262391.000,2026-09-28,0.087724
43262392.000,2026-09-28,0.084984
43262393.000,2026-09-28,0.082204
43262394.000,2026-09-28,0.079393
43262395.000,2026-09-28,0.076560
43262396.000,2026-09-28,0.073715
43262397.000,2026-09-28,0.070867
43262398.000,2026-09-28,0.068025
43262399.000,2026-09-28,0.065196
43262400.000,2026-09-28,0.062389
43262401.000,2026-09-28,0.059611
43262401.334,2026-09-28,0.058695
43262402.000,2026-09-28,0.056869
43262403.000,2026-09-28,0.054170
43262404.000,2026-09-28,0.051521
43262405.000,2026-09-28,0.048925
43262406.000,2026-09-28,0.046389
43262407.000,2026-09-28,0.043917
43262408.000,2026-09-28,0.041513
43262409.000,2026-09-28,0.039180
43262410.000,2026-09-28,0.036922
43262411.000,2026-09-28,0.034740
43262412.000,2026-09-28,0.032637
43262413.000,2026-09-28,0.030614
43262414.000,2026-09-28,0.028673
43262415.000,2026-09-28,0.026813
43262416.000,2026-09-28,0.025035
43262417.000,2026-09-28,0.023340
43262418.000,2026-09-28,0.021725
43262419.000,2026-09-28,0.020192
43262420.000,2026-09-28,0.018737
43262421.000,2026-09-28,0.017361
43262422.000,2026-09-28,0.016061
43262423.000,2026-09-28,0.014836
43262424.000,2026-09-28,0.013683
43262425.000,2026-09-28,0.012600
43262426.000,2026-09-28,0.011585
43262427.000,2026-09-28,0.010636
43262428.000,2026-09-28,0.009749
43262429.000,2026-09-28,0.008922
43262430.000,2026-09-28,0.008153
43262431.000,2026-09-28,0.007439
43262432.000,2026-09-28,0.006777
43262433.000,2026-09-28,0.006164
43262434.000,2026-09-28,0.005598
43262435.000,2026-09-28,0.005076
43262436.000,2026-09-28,0.004596
43262437.000,2026-09-28,0.004155
43262438.000,2026-09-28,0.003750
43262439.000,2026-09-28,0.003380
43262440.000,2026-09-28,0.003041
43262441.000,2026-09-28,0.002732
43262442.000,2026-09-28,0.002451
43262443.000,2026-09-28,0.002196
43262444.000,2026-09-28,0.001963
43262445.000,2026-09-28,0.001753
43262446.000,2026-09-28,0.001563
43262447.000,2026-09-28,0.001392
43262448.000,2026-09-28,0.001237
43262449.000,2026-09-28,0.001098
43262450.000,2026-09-28,0.000973
43262451.000,2026-09-28,0.000861
43262452.000,2026-09-28,0.000760
43262453.000,2026-09-28,0.000671
43262454.000,2026-09-28,0.000591
43262455.000,2026-09-28,0.000519
43262456.000,2026-09-28,0.000456
43262457.000,2026-09-28,0.000400
43262458.000,2026-09-28,0.000350
43262459.000,2026-09-28,0.000306
43262460.000,2026-09-28,0.000267
43262461.000,2026-09-28,0.000233
43262462.000,2026-09-28,0.000203
43262463.000,2026-09-28,0.000176
43262464.000,2026-09-28,0.000153
43262465.000,2026-09-28,0.000133
43262466.000,2026-09-28,0.000115
43262467.000,2026-09-28,0.000098
43262468.000,2026-09-28,0.000084
43262469.000,2026-09-28,0.000069
43262470.000,2026-09-28,0.000054
43262471.000,2026-09-28,0.000037
43262472.000,2026-09-28,0.000015
43262473.000,2026-09-28,-0.000016
43262474.000,2026-09-28,-0.000063
43262475.000,2026-09-28,-0.000136
43262476.000,2026-09-28,-0.000248
43262477.000,2026-09-28,-0.000422
43262478.000,2026-09-28,-0.000688
43262479.000,2026-09-28,-0.001086
43262480.000,2026-09-28,-0.001672
43262481.000,2026-09-28,-0.002517
43262482.000,2026-09-28,-0.003713
43262483.000,2026-09-28,-0.005370
43262484.000,2026-09-28,-0.007615
43262485.000,2026-09-28,-0.010595
43262486.000,2026-09-28,-0.014462
43262487.000,2026-09-28,-0.019369
43262488.000,2026-09-28,-0.025452
43262489.000,2026-09-28,-0.032820
43262490.000,2026-09-28,-0.041527
43262491.000,2026-09-28,-0.051559
43262492.000,2026-09-28,-0.062815
43262493.000,2026-09-28,-0.075095
43262494.000,2026-09-28,-0.088094
43262495.000,2026-09-28,-0.101408
43262496.000,2026-09-28,-0.114548
43262497.000,2026-09-28,-0.126966
43262498.000,2026-09-28,-0.138094
43262499.000,2026-09-28,-0.147382
43262500.000,2026-09-28,-0.154345
43262501.000,2026-09-28,-0.158601
43262501.390,2026-09-28,-0.159110
43262502.000,2026-09-28,-0.159908
43262503.000,2026-09-28,-0.158180
43262504.000,2026-09-28,-0.153491
43262505.000,2026-09-28,-0.146065
43262506.000,2026-09-28,-0.136239
43262507.000,2026-09-28,-0.124420
43262508.000,2026-09-28,-0.111027
43262509.000,2026-09-28,-0.096427
43262510.000,2026-09-28,-0.080868
43262511.000,2026-09-28,-0.064418
43262512.000,2026-09-28,-0.046911
43262513.000,2026-09-28,-0.027908
43262514.000,2026-09-28,-0.006683
43262515.000,2026-09-28,0.017768
43262516.000,2026-09-28,0.046679
43262517.000,2026-09-28,0.081424
43262518.000,2026-09-28,0.123386
43262519.000,2026-09-28,0.173784
43262520.000,2026-09-28,0.233471
43262521.000,2026-09-28,0.302714
43262522.000,2026-09-28,0.380998
43262523.000,2026-09-28,0.466870
43262524.000,2026-09-28,0.557875
43262525.000,2026-09-28,0.650595
43262526.000,2026-09-28,0.740819
43262527.000,2026-09-28,0.823843
43262528.000,2026-09-28,0.894867
43262529.000,2026-09-28,0.949453
43262530.000,2026-09-28,0.983978
43262531.000,2026-09-28,0.996033
43262532.000,2026-09-28,0.984681
43262533.000,2026-09-28,0.950565
43262534.000,2026-09-28,0.895827
43262535.000,2026-09-28,0.823862
43262536.000,2026-09-28,0.738941
43262537.000,2026-09-28,0.645764
43262538.000,2026-09-28,0.549008
43262539.000,2026-09-28,0.452920
43262540.000,2026-09-28,0.361017
43262541.000,2026-09-28,0.275904
43262542.000,2026-09-28,0.199221
43262543.000,2026-09-28,0.131703
43262544.000,2026-09-28,0.073320
43262545.000,2026-09-28,0.023472
43262546.000,2026-09-28,-0.018810
43262547.000,2026-09-28,-0.054668
43262548.000,2026-09-28,-0.085261
43262549.000,2026-09-28,-0.111644
43262550.000,2026-09-28,-0.134695
43262551.000,2026-09-28,-0.155086
43262552.000,2026-09-28,-0.173273
43262553.000,2026-09-28,-0.189526
43262554.000,2026-09-28,-0.203951
43262555.000,2026-09-28,-0.216540
43262556.000,2026-09-28,-0.227205
43262557.000,2026-09-28,-0.235819
43262558.000,2026-09-28,-0.242246
43262559.000,2026-09-28,-0.246366
43262560.000,2026-09-28,-0.248100
43262561.000,2026-09-28,-0.247417
43262562.000,2026-09-28,-0.244348
43262563.000,2026-09-28,-0.238983
43262564.000,2026-09-28,-0.231475
43262565.000,2026-09-28,-0.222029
43262566.000,2026-09-28,-0.210897
43262567.000,2026-09-28,-0.198365
43262568.000,2026-09-28,-0.184745
43262569.000,2026-09-28,-0.170355
43262570.000,2026-09-28,-0.155514
43262571.000,2026-09-28,-0.140527
43262572.000,2026-09-28,-0.125675
43262573.000,2026-09-28,-0.111207
43262574.000,2026-09-28,-0.097337
43262575.000,2026-09-28,-0.084235
43262576.000,2026-09-28,-0.072032
43262577.000,2026-09-28,-0.060816
43262578.000,2026-09-28,-0.050637
43262579.000,2026-09-28,-0.041509
43262580.000,2026-09-28,-0.033418
43262581.000,2026-09-28,-0.026322
43262582.000,2026-09-28,-0.020162
43262583.000,2026-09-28,-0.014864
43262584.000,2026-09-28,-0.010346
43262585.000,2026-09-28,-0.006520
43262586.000,2026-09-28,-0.003300
43262587.000,2026-09-28,-0.000601
43262588.000,2026-09-28,0.001658
43262589.000,2026-09-28,0.003550
43262590.000,2026-09-28,0.005141
43262591.000,2026-09-28,0.006490
43262592.000,2026-09-28,0.007648
43262593.000,2026-09-28,0.008657
43262594.000,2026-09-28,0.009553
43262595.000,2026-09-28,0.010367
43262596.000,2026-09-28,0.011122
43262597.000,2026-09-28,0.011838
43262598.000,2026-09-28,0.012532
43262599.000,2026-09-28,0.013214
43262600.000,2026-09-28,0.013895
43262601.000,2026-09-28,0.014582
43262601.445,2026-09-28,0.014892
43262602.000,2026-09-28,0.015280
43262603.000,2026-09-28,0.015994
43262604.000,2026-09-28,0.016728
43262605.000,2026-09-28,0.017485
43262606.000,2026-09-28,0.018265
43262607.000,2026-09-28,0.019071
43262608.000,2026-09-28,0.019905
43262609.000,2026-09-28,0.020767
43262610.000,2026-09-28,0.021659
43262611.000,2026-09-28,0.022581
43262612.000,2026-09-28,0.023535
43262613.000,2026-09-28,0.024520
43262614.000,2026-09-28,0.025538
43262615.000,2026-09-28,0.026590
43262616.000,2026-09-28,0.027676
43262617.000,2026-09-28,0.028797
43262618.000,2026-09-28,0.029953
43262619.000,2026-09-28,0.031146
43262620.000,2026-09-28,0.032375
43262621.000,2026-09-28,0.033642
43262622.000,2026-09-28,0.034947
43262623.000,2026-09-28,0.036291
43262624.000,2026-09-28,0.037674
43262625.000,2026-09-28,0.039097
43262626.000,2026-09-28,0.040560
43262627.000,2026-09-28,0.042064
43262628.000,2026-09-28,0.043610
43262629.000,2026-09-28,0.045198
43262630.000,2026-09-28,0.046828
43262631.000,2026-09-28,0.048500
43262632.000,2026-09-28,0.050216
43262633.000,2026-09-28,0.051976
43262634.000,2026-09-28,0.053779
43262635.000,2026-09-28,0.055626
43262636.000,2026-09-28,0.057518
43262637.000,2026-09-28,0.059455
43262638.000,2026-09-28,0.061436
43262639.000,2026-09-28,0.063463
43262640.000,2026-09-28,0.065535
43262641.000,2026-09-28,0.067652
43262642.000,2026-09-28,0.069814
43262643.000,2026-09-28,0.072021
43262644.000,2026-09-28,0.074273
43262645.000,2026-09-28,0.076571
43262646.000,2026-09-28,0.078913
43262647.000,2026-09-28,0.081300
43262648.000,2026-09-28,0.083731
43262649.000,2026-09-28,0.086207
43262650.000,2026-09-28,0.088726
43262651.000,2026-09-28,0.091288
43262652.000,2026-09-28,0.093893
43262653.000,2026-09-28,0.096540
43262654.000,2026-09-28,0.099229
43262655.000,2026-09-28,0.101958
43262656.000,2026-09-28,0.104728
43262657.000,2026-09-28,0.107537
43262658.000,2026-09-28,0.110384
43262659.000,2026-09-28,0.113269
43262660.000,2026-09-28,0.116191
43262661.000,2026-09-28,0.119148
43262662.000,2026-09-28,0.122140
43262663.000,2026-09-28,0.125164
43262664.000,2026-09-28,0.128221
43262665.000,2026-09-28,0.131309
43262666.000,2026-09-28,0.134425
43262667.000,2026-09-28,0.137570
43262668.000,2026-09-28,0.140741
43262669.000,2026-09-28,0.143937
43262670.000,2026-09-28,0.147155
43262671.000,2026-09-28,0.150396
43262672.000,2026-09-28,0.153656
43262673.000,2026-09-28,0.156934
43262674.000,2026-09-28,0.160228
43262675.000,2026-09-28,0.163537
43262676.000,2026-09-28,0.166857
43262677.000,2026-09-28,0.170188
43262678.000,2026-09-28,0.173527
43262679.000,2026-09-28,0.176872
43262680.000,2026-09-28,0.180220
43262681.000,2026-09-28,0.183570
43262682.000,2026-09-28,0.186919
43262683.000,2026-09-28,0.190266
43262684.000,2026-09-28,0.193607
43262685.000,2026-09-28,0.196940
43262686.000,2026-09-28,0.200263
43262687.000,2026-09-28,0.203573
43262688.000,2026-09-28,0.206868
43262689.000,2026-09-28,0.210145
43262690.000,2026-09-28,0.213402
43262691.000,2026-09-28,0.216636
43262692.000,2026-09-28,0.219845
43262693.000,2026-09-28,0.223027
43262694.000,2026-09-28,0.226177
43262695.000,2026-09-28,0.229294
43262696.000,2026-09-28,0.232376
43262697.000,2026-09-28,0.235419
43262698.000,2026-09-28,0.238422
43262699.000,2026-09-28,0.241381
43262700.000,2026-09-28,0.244293
43262701.000,2026-09-28,0.247157
43262701.501,2026-09-28,0.248566
43262702.000,2026-09-28,0.249970
43262703.000,2026-09-28,0.252728
43262704.000,2026-09-28,0.255429
43262705.000,2026-09-28,0.258071
43262706.000,2026-09-28,0.260651
43262707.000,2026-09-28,0.263166
43262708.000,2026-09-28,0.265616
43262709.000,2026-09-28,0.267996
43262710.000,2026-09-28,0.270306
43262711.000,2026-09-28,0.272543
43262712.000,2026-09-28,0.274704
43262713.000,2026-09-28,0.276788
43262714.000,2026-09-28,0.278794
43262715.000,2026-09-28,0.280718
43262716.000,2026-09-28,0.282559
43262717.000,2026-09-28,0.284316
43262718.000,2026-09-28,0.285987
43262719.000,2026-09-28,0.287570
43262720.000,2026-09-28,0.289064
43262721.000,2026-09-28,0.290467
43262722.000,2026-09-28,0.291778
43262723.000,2026-09-28,0.292995
43262724.000,2026-09-28,0.294118
43262725.000,2026-09-28,0.295146
43262726.000,2026-09-28,0.296077
43262727.000,2026-09-28,0.296910
43262728.000,2026-09-28,0.297646
43262729.000,2026-09-28,0.298282
43262730.000,2026-09-28,0.298819
43262731.000,2026-09-28,0.299256
43262732.000,2026-09-28,0.299593
43262733.000,2026-09-28,0.299829
43262734.000,2026-09-28,0.299964
43262735.000,2026-09-28,0.299999
43262736.000,2026-09-28,0.299932
43262737.000,2026-09-28,0.299765
43262738.000,2026-09-28,0.299497
43262739.000,2026-09-28,0.299129
43262740.000,2026-09-28,0.298661
43262741.000,2026-09-28,0.298093
43262742.000,2026-09-28,0.297427
43262743.000,2026-09-28,0.296664
43262744.000,2026-09-28,0.295802
43262745.000,2026-09-28,0.294845
43262746.000,2026-09-28,0.293792
43262747.000,2026-09-28,0.292646
43262748.000,2026-09-28,0.291406
43262749.000,2026-09-28,0.290074
43262750.000,2026-09-28,0.288652
43262751.000,2026-09-28,0.287142
43262752.000,2026-09-28,0.285543
43262753.000,2026-09-28,0.283859
43262754.000,2026-09-28,0.282091
43262755.000,2026-09-28,0.280240
43262756.000,2026-09-28,0.278309
43262757.000,2026-09-28,0.276299
43262758.000,2026-09-28,0.274212
43262759.000,2026-09-28,0.272050
43262760.000,2026-09-28,0.269816
43262761.000,2026-09-28,0.267511
43262762.000,2026-09-28,0.265138
43262763.000,2026-09-28,0.262698
43262764.000,2026-09-28,0.260195
43262765.000,2026-09-28,0.257629
43262766.000,2026-09-28,0.255005
43262767.000,2026-09-28,0.252323
43262768.000,2026-09-28,0.249587
43262769.000,2026-09-28,0.246799
43262770.000,2026-09-28,0.243961
43262771.000,2026-09-28,0.241076
43262772.000,2026-09-28,0.238146
43262773.000,2026-09-28,0.235174
43262774.000,2026-09-28,0.232162
43262775.000,2026-09-28,0.229113
43262776.000,2026-09-28,0.226029
43262777.000,2026-09-28,0.222913
43262778.000,2026-09-28,0.219768
43262779.000,2026-09-28,0.216595
43262780.000,2026-09-28,0.213398
43262781.000,2026-09-28,0.210179
43262782.000,2026-09-28,0.206940
43262783.000,2026-09-28,0.203683
43262784.000,2026-09-28,0.200412
43262785.000,2026-09-28,0.197129
43262786.000,2026-09-28,0.193835
43262787.000,2026-09-28,0.190534
43262788.000,2026-09-28,0.187228
43262789.000,2026-09-28,0.183918
43262790.000,2026-09-28,0.180607
43262791.000,2026-09-28,0.177298
43262792.000,2026-09-28,0.173992
43262793.000,2026-09-28,0.170692
43262794.000,2026-09-28,0.167399
43262795.000,2026-09-28,0.164116
43262796.000,2026-09-28,0.160845
43262797.000,2026-09-28,0.157587
43262798.000,2026-09-28,0.154344
43262799.000,2026-09-28,0.151119
43262800.000,2026-09-28,0.147913
43262801.000,2026-09-28,0.144727
43262801.556,2026-09-28,0.142967
43262802.000,2026-09-28,0.141563
43262803.000,2026-09-28,0.138423
43262804.000,2026-09-28,0.135306
43262805.000,2026-09-28,0.132215
43262806.000,2026-09-28,0.129151
43262807.000,2026-09-28,0.126116
43262808.000,2026-09-28,0.123111
43262809.000,2026-09-28,0.120137
43262810.000,2026-09-28,0.117195
43262811.000,2026-09-28,0.114287
43262812.000,2026-09-28,0.111413
43262813.000,2026-09-28,0.108575
43262814.000,2026-09-28,0.105773
43262815.000,2026-09-28,0.103009
43262816.000,2026-09-28,0.100283
43262817.000,2026-09-28,0.097596
43262818.000,2026-09-28,0.094949
43262819.000,2026-09-28,0.092343
43262820.000,2026-09-28,0.089778
43262821.000,2026-09-28,0.087254
43262822.000,2026-09-28,0.084773
43262823.000,2026-09-28,0.082334
43262824.000,2026-09-28,0.079938
43262825.000,2026-09-28,0.077585
43262826.000,2026-09-28,0.075276
43262827.000,2026-09-28,0.073011
43262828.000,2026-09-28,0.070790
43262829.000,2026-09-28,0.068613
43262830.000,2026-09-28,0.066481
43262831.000,2026-09-28,0.064392
43262832.000,2026-09-28,0.062348
43262833.000,2026-09-28,0.060349
43262834.000,2026-09-28,0.058393
43262835.000,2026-09-28,0.056482
43262836.000,2026-09-28,0.054614
43262837.000,2026-09-28,0.052790
43262838.000,2026-09-28,0.051010
43262839.000,2026-09-28,0.049272
43262840.000,2026-09-28,0.047578
43262841.000,2026-09-28,0.045926
43262842.000,2026-09-28,0.044316
43262843.000,2026-09-28,0.042748
43262844.000,2026-09-28,0.041222
43262845.000,2026-09-28,0.039736
43262846.000,2026-09-28,0.038291
43262847.000,2026-09-28,0.036885
43262848.000,2026-09-28,0.035519
43262849.000,2026-09-28,0.034192
43262850.000,2026-09-28,0.032903
43262851.000,2026-09-28,0.031651
43262852.000,2026-09-28,0.030437
43262853.000,2026-09-28,0.029259
43262854.000,2026-09-28,0.028117
43262855.000,2026-09-28,0.027011
43262856.000,2026-09-28,0.025939
43262857.000,2026-09-28,0.024901
43262858.000,2026-09-28,0.023896
43262859.000,2026-09-28,0.022924
43262860.000,2026-09-28,0.021983
43262861.000,2026-09-28,0.021074
43262862.000,2026-09-28,0.020196
43262863.000,2026-09-28,0.019348
43262864.000,2026-09-28,0.018528
43262865.000,2026-09-28,0.017738
43262866.000,2026-09-28,0.016975
43262867.000,2026-09-28,0.016239
43262868.000,2026-09-28,0.015530
43262869.000,2026-09-28,0.014847
43262870.000,2026-09-28,0.014188
43262871.000,2026-09-28,0.013555
43262872.000,2026-09-28,0.012945
43262873.000,2026-09-28,0.012358
43262874.000,2026-09-28,0.011794
43262875.000,2026-09-28,0.011251
43262876.000,2026-09-28,0.010730
43262877.000,2026-09-28,0.010229
43262878.000,2026-09-28,0.009749
43262879.000,2026-09-28,0.009287
43262880.000,2026-09-28,0.008845
43262881.000,2026-09-28,0.008420
43262882.000,2026-09-28,0.008014
43262883.000,2026-09-28,0.007624
43262884.000,2026-09-28,0.007250
43262885.000,2026-09-28,0.006893
43262886.000,2026-09-28,0.006551
43262887.000,2026-09-28,0.006223
43262888.000,2026-09-28,0.005910
43262889.000,2026-09-28,0.005611
43262890.000,2026-09-28,0.005325
43262891.000,2026-09-28,0.005052
43262892.000,2026-09-28,0.004791
43262893.000,2026-09-28,0.004542
43262894.000,2026-09-28,0.004304
43262895.000,2026-09-28,0.004078
43262896.000,2026-09-28,0.003862
43262897.000,2026-09-28,0.003656
43262898.000,2026-09-28,0.003460
43262899.000,2026-09-28,0.003273
43262900.000,2026-09-28,0.003095
43262901.000,2026-09-28,0.002926
43262901.612,2026-09-28,0.002828
43262902.000,2026-09-28,0.002766
43262903.000,2026-09-28,0.002613
43262904.000,2026-09-28,0.002467
43262905.000,2026-09-28,0.002329
43262906.000,2026-09-28,0.002198
43262907.000,2026-09-28,0.002074
43262908.000,2026-09-28,0.001956
43262909.000,2026-09-28,0.001844
43262910.000,2026-09-28,0.001738
43262911.000,2026-09-28,0.001638
43262912.000,2026-09-28,0.001543
43262913.000,2026-09-28,0.001452
43262914.000,2026-09-28,0.001367
43262915.000,2026-09-28,0.001286
43262916.000,2026-09-28,0.001210
43262917.000,2026-09-28,0.001138
43262918.000,2026-09-28,0.001069
43262919.000,2026-09-28,0.001005
43262920.000,2026-09-28,0.000944
43262921.000,2026-09-28,0.000886
43262922.000,2026-09-28,0.000832
43262923.000,2026-09-28,0.000781
43262924.000,2026-09-28,0.000732
43262925.000,2026-09-28,0.000687
43262926.000,2026-09-28,0.000644
43262927.000,2026-09-28,0.000603
43262928.000,2026-09-28,0.000565
43262929.000,2026-09-28,0.000529
43262930.000,2026-09-28,0.000496
43262931.000,2026-09-28,0.000464
43262932.000,2026-09-28,0.000434
43262933.000,2026-09-28,0.000406
43262934.000,2026-09-28,0.000379
43262935.000,2026-09-28,0.000355
43262936.000,2026-09-28,0.000331
43262937.000,2026-09-28,0.000309
43262938.000,2026-09-28,0.000289
43262939.000,2026-09-28,0.000270
43262940.000,2026-09-28,0.000252
43262941.000,2026-09-28,0.000235
43262942.000,2026-09-28,0.000219
43262943.000,2026-09-28,0.000204
43262944.000,2026-09-28,0.000190
43262945.000,2026-09-28,0.000177
43262946.000,2026-09-28,0.000165
43262947.000,2026-09-28,0.000154
43262948.000,2026-09-28,0.000143
43262949.000,2026-09-28,0.000133
43262950.000,2026-09-28,0.000124
43262951.000,2026-09-28,0.000115
43262952.000,2026-09-28,0.000107
43262953.000,2026-09-28,0.000099
43262954.000,2026-09-28,0.000092
43262955.000,2026-09-28,0.000086
43262956.000,2026-09-28,0.000079
43262957.000,2026-09-28,0.000074
43262958.000,2026-09-28,0.000068
43262959.000,2026-09-28,0.000063
43262960.000,2026-09-28,0.000059
43262961.000,2026-09-28,0.000054
43262962.000,2026-09-28,0.000050
43262963.000,2026-09-28,0.000047
43262964.000,2026-09-28,0.000043
43262965.000,2026-09-28,0.000040
43262966.000,2026-09-28,0.000037
43262967.000,2026-09-28,0.000034
43262968.000,2026-09-28,0.000000
43262969.000,2026-09-28,0.000000
43262970.000,2026-09-28,0.000000
43262971.000,2026-09-28,0.000000
43262972.000,2026-09-28,0.000001
43262973.000,2026-09-28,0.000001
43262974.000,2026-09-28,0.000001
43262975.000,2026-09-28,0.000001
43262976.000,2026-09-28,0.000001
43262977.000,2026-09-28,0.000001
43262978.000,2026-09-28,0.000002
43262979.000,2026-09-28,0.000002
43262980.000,2026-09-28,0.000003
43262981.000,2026-09-28,0.000003
43262982.000,2026-09-28,0.000004
43262983.000,2026-09-28,0.000004
43262984.000,2026-09-28,0.000005
43262985.000,2026-09-28,0.000006
43262986.000,2026-09-28,0.000007
43262987.000,2026-09-28,0.000009
43262988.000,2026-09-28,0.000010
43262989.000,2026-09-28,0.000012
43262990.000,2026-09-28,0.000015
43262991.000,2026-09-28,0.000017
43262992.000,2026-09-28,0.000020
43262993.000,2026-09-28,0.000024
43262994.000,2026-09-28,0.000028
43262995.000,2026-09-28,0.000033
43262996.000,2026-09-28,0.000038
43262997.000,2026-09-28,0.000045
43262998.000,2026-09-28,0.000053
43262999.000,2026-09-28,0.000061
43263000.000,2026-09-28,0.000071
43263001.000,2026-09-28,0.000083
43263001.668,2026-09-28,0.000092
43263002.000,2026-09-28,0.000097
43263003.000,2026-09-28,0.000112
43263004.000,2026-09-28,0.000129
43263005.000,2026-09-28,0.000150
43263006.000,2026-09-28,0.000173
43263007.000,2026-09-28,0.000199
43263008.000,2026-09-28,0.000229
43263009.000,2026-09-28,0.000263
43263010.000,2026-09-28,0.000301
43263011.000,2026-09-28,0.000345
43263012.000,2026-09-28,0.000394
43263013.000,2026-09-28,0.000450
43263014.000,2026-09-28,0.000513
43263015.000,2026-09-28,0.000584
43263016.000,2026-09-28,0.000663
43263017.000,2026-09-28,0.000752
43263018.000,2026-09-28,0.000852
43263019.000,2026-09-28,0.000963
43263020.000,2026-09-28,0.001087
43263021.000,2026-09-28,0.001226
43263022.000,2026-09-28,0.001380
43263023.000,2026-09-28,0.001550
43263024.000,2026-09-28,0.001740
43263025.000,2026-09-28,0.001949
43263026.000,2026-09-28,0.002180
43263027.000,2026-09-28,0.002434
43263028.000,2026-09-28,0.002715
43263029.000,2026-09-28,0.003022
43263030.000,2026-09-28,0.003360
43263031.000,2026-09-28,0.003729
43263032.000,2026-09-28,0.004133
43263033.000,2026-09-28,0.004573
43263034.000,2026-09-28,0.005052
43263035.000,2026-09-28,0.005572
43263036.000,2026-09-28,0.006137
43263037.000,2026-09-28,0.006749
43263038.000,2026-09-28,0.007410
43263039.000,2026-09-28,0.008123
43263040.000,2026-09-28,0.008891
43263041.000,2026-09-28,0.009717
43263042.000,2026-09-28,0.010603
43263043.000,2026-09-28,0.011552
43263044.000,2026-09-28,0.012567
43263045.000,2026-09-28,0.013649
43263046.000,2026-09-28,0.014802
43263047.000,2026-09-28,0.016027
43263048.000,2026-09-28,0.017327
43263049.000,2026-09-28,0.018704
43263050.000,2026-09-28,0.020159
43263051.000,2026-09-28,0.021693
43263052.000,2026-09-28,0.023308
43263053.000,2026-09-28,0.025005
43263054.000,2026-09-28,0.026784
43263055.000,2026-09-28,0.028646
43263056.000,2026-09-28,0.030589
43263057.000,2026-09-28,0.032614
43263058.000,2026-09-28,0.034720
43263059.000,2026-09-28,0.036904
43263060.000,2026-09-28,0.039166
43263061.000,2026-09-28,0.041502
43263062.000,2026-09-28,0.043910
43263063.000,2026-09-28,0.046386
43263064.000,2026-09-28,0.048925
43263065.000,2026-09-28,0.051525
43263066.000,2026-09-28,0.054179
43263067.000,2026-09-28,0.056882
43263068.000,2026-09-28,0.059629
43263069.000,2026-09-28,0.062411
43263070.000,2026-09-28,0.065223
43263071.000,2026-09-28,0.068057
43263072.000,2026-09-28,0.070905
43263073.000,2026-09-28,0.073758
43263074.000,2026-09-28,0.076608
43263075.000,2026-09-28,0.079446
43263076.000,2026-09-28,0.082262
43263077.000,2026-09-28,0.085047
43263078.000,2026-09-28,0.087792
43263079.000,2026-09-28,0.090485
43263080.000,2026-09-28,0.093118
43263081.000,2026-09-28,0.095681
43263082.000,2026-09-28,0.098163
43263083.000,2026-09-28,0.100554
43263084.000,2026-09-28,0.102846
43263085.000,2026-09-28,0.105029
43263086.000,2026-09-28,0.107093
43263087.000,2026-09-28,0.109030
43263088.000,2026-09-28,0.110832
43263089.000,2026-09-28,0.112490
43263090.000,2026-09-28,0.113998
43263091.000,2026-09-28,0.115350
43263092.000,2026-09-28,0.116538
43263093.000,2026-09-28,0.117557
43263094.000,2026-09-28,0.118404
43263095.000,2026-09-28,0.119074
43263096.000,2026-09-28,0.119564
43263097.000,2026-09-28,0.119872
43263098.000,2026-09-28,0.119997
43263099.000,2026-09-28,0.119938
43263100.000,2026-09-28,0.119695
43263101.000,2026-09-28,0.119269
43263101.723,2026-09-28,0.118830
43263102.000,2026-09-28,0.118663
43263103.000,2026-09-28,0.117879
43263104.000,2026-09-28,0.116921
43263105.000,2026-09-28,0.115794
43263106.000,2026-09-28,0.114502
43263107.000,2026-09-28,0.113052
43263108.000,2026-09-28,0.111450
43263109.000,2026-09-28,0.109704
43263110.000,2026-09-28,0.107820
43263111.000,2026-09-28,0.105807
43263112.000,2026-09-28,0.103675
43263113.000,2026-09-28,0.101430
43263114.000,2026-09-28,0.099084
43263115.000,2026-09-28,0.096645
43263116.000,2026-09-28,0.094123
43263117.000,2026-09-28,0.091528
43263118.000,2026-09-28,0.088870
43263119.000,2026-09-28,0.086158
43263120.000,2026-09-28,0.083403
43263121.000,2026-09-28,0.080614
43263122.000,2026-09-28,0.077801
43263123.000,2026-09-28,0.074972
43263124.000,2026-09-28,0.072137
43263125.000,2026-09-28,0.069305
43263126.000,2026-09-28,0.066484
43263127.000,2026-09-28,0.063681
43263128.000,2026-09-28,0.060905
43263129.000,2026-09-28,0.058163
43263130.000,2026-09-28,0.055460
43263131.000,2026-09-28,0.052804
43263132.000,2026-09-28,0.050199
43263133.000,2026-09-28,0.047652
43263134.000,2026-09-28,0.045165
43263135.000,2026-09-28,0.042745
43263136.000,2026-09-28,0.040393
43263137.000,2026-09-28,0.038114
43263138.000,2026-09-28,0.035910
43263139.000,2026-09-28,0.033783
43263140.000,2026-09-28,0.031734
43263141.000,2026-09-28,0.029765
43263142.000,2026-09-28,0.027876
43263143.000,2026-09-28,0.026069
43263144.000,2026-09-28,0.024342
43263145.000,2026-09-28,0.022696
43263146.000,2026-09-28,0.021129
43263147.000,2026-09-28,0.019642
43263148.000,2026-09-28,0.018232
43263149.000,2026-09-28,0.016898
43263150.000,2026-09-28,0.015639
43263151.000,2026-09-28,0.014452
43263152.000,2026-09-28,0.013335
43263153.000,2026-09-28,0.012286
43263154.000,2026-09-28,0.011303
43263155.000,2026-09-28,0.010383
43263156.000,2026-09-28,0.009524
43263157.000,2026-09-28,0.008723
43263158.000,2026-09-28,0.007978
43263159.000,2026-09-28,0.007286
43263160.000,2026-09-28,0.006643
43263161.000,2026-09-28,0.006049
43263162.000,2026-09-28,0.005499
43263163.000,2026-09-28,0.004993
43263164.000,2026-09-28,0.004526
43263165.000,2026-09-28,0.004097
43263166.000,2026-09-28,0.003703
43263167.000,2026-09-28,0.003342
43263168.000,2026-09-28,0.003011
43263169.000,2026-09-28,0.002710
43263170.000,2026-09-28,0.002435
43263171.000,2026-09-28,0.002184
43263172.000,2026-09-28,0.001957
43263173.000,2026-09-28,0.001751
43263174.000,2026-09-28,0.001564
43263175.000,2026-09-28,0.001395
43263176.000,2026-09-28,0.001243
43263177.000,2026-09-28,0.001105
43263178.000,2026-09-28,0.000981
43263179.000,2026-09-28,0.000870
43263180.000,2026-09-28,0.000771
43263181.000,2026-09-28,0.000682
43263182.000,2026-09-28,0.000602
43263183.000,2026-09-28,0.000531
43263184.000,2026-09-28,0.000467
43263185.000,2026-09-28,0.000411
43263186.000,2026-09-28,0.000361
43263187.000,2026-09-28,0.000316
43263188.000,2026-09-28,0.000277
43263189.000,2026-09-28,0.000242
43263190.000,2026-09-28,0.000212
43263191.000,2026-09-28,0.000185
43263192.000,2026-09-28,0.000161
43263193.000,2026-09-28,0.000140
43263194.000,2026-09-28,0.000121
43263195.000,2026-09-28,0.000105
43263196.000,2026-09-28,0.000090
43263197.000,2026-09-28,0.000076
43263198.000,2026-09-28,0.000062
43263199.000,2026-09-28,0.000046
43263200.000,2026-09-28,0.000027
43263201.000,2026-09-28,0.000002
43263201.779,2026-09-28,-0.000026
43263202.000,2026-09-28,-0.000035
43263203.000,2026-09-28,-0.000090
43263204.000,2026-09-28,-0.000175
43263205.000,2026-09-28,-0.000306
43263206.000,2026-09-28,-0.000505
43263207.000,2026-09-28,-0.000804
43263208.000,2026-09-28,-0.001246
43263209.000,2026-09-28,-0.001888
43263210.000,2026-09-28,-0.002802
43263211.000,2026-09-28,-0.004079
43263212.000,2026-09-28,-0.005826
43263213.000,2026-09-28,-0.008170
43263214.000,2026-09-28,-0.011247
43263215.000,2026-09-28,-0.015204
43263216.000,2026-09-28,-0.020182
43263217.000,2026-09-28,-0.026307
43263218.000,2026-09-28,-0.033676
43263219.000,2026-09-28,-0.042333
43263220.000,2026-09-28,-0.052260
43263221.000,2026-09-28,-0.063355
43263222.000,2026-09-28,-0.075424
43263223.000,2026-09-28,-0.088178
43263224.000,2026-09-28,-0.101232
43263225.000,2026-09-28,-0.114128
43263226.000,2026-09-28,-0.126349
43263227.000,2026-09-28,-0.137358
43263228.000,2026-09-28,-0.146634
43263229.000,2026-09-28,-0.153712
43263230.000,2026-09-28,-0.158218
43263231.000,2026-09-28,-0.159906
43263232.000,2026-09-28,-0.158673
43263233.000,2026-09-28,-0.154564
43263234.000,2026-09-28,-0.147765
43263235.000,2026-09-28,-0.138577
43263236.000,2026-09-28,-0.127375
43263237.000,2026-09-28,-0.114558
43263238.000,2026-09-28,-0.100490
43263239.000,2026-09-28,-0.085443
43263240.000,2026-09-28,-0.069535
43263241.000,2026-09-28,-0.052677
43263242.000,2026-09-28,-0.034536
43263243.000,2026-09-28,-0.014509
43263244.000,2026-09-28,0.008272
43263245.000,2026-09-28,0.034914
43263246.000,2026-09-28,0.066693
43263247.000,2026-09-28,0.104948
43263248.000,2026-09-28,0.150932
43263249.000,2026-09-28,0.205641
43263250.000,2026-09-28,0.269606
43263251.000,2026-09-28,0.342701
43263252.000,2026-09-28,0.423977
43263253.000,2026-09-28,0.511553
43263254.000,2026-09-28,0.602599
43263255.000,2026-09-28,0.693440
43263256.000,2026-09-28,0.779765
43263257.000,2026-09-28,0.856958
43263258.000,2026-09-28,0.920499
43263259.000,2026-09-28,0.966402
43263260.000,2026-09-28,0.991624
43263261.000,2026-09-28,0.994387
43263262.000,2026-09-28,0.974380
43263263.000,2026-09-28,0.932783
43263264.000,2026-09-28,0.872133
43263265.000,2026-09-28,0.796047
43263266.000,2026-09-28,0.708836
43263267.000,2026-09-28,0.615075
43263268.000,2026-09-28,0.519185
43263269.000,2026-09-28,0.425077
43263270.000,2026-09-28,0.335903
43263271.000,2026-09-28,0.253913
43263272.000,2026-09-28,0.180445
43263273.000,2026-09-28,0.115999
43263274.000,2026-09-28,0.060388
43263275.000,2026-09-28,0.012926
43263276.000,2026-09-28,-0.027380
43263277.000,2026-09-28,-0.061651
43263278.000,2026-09-28,-0.090996
43263279.000,2026-09-28,-0.116408
43263280.000,2026-09-28,-0.138699
43263281.000,2026-09-28,-0.158481
43263282.000,2026-09-28,-0.176162
43263283.000,2026-09-28,-0.191972
43263284.000,2026-09-28,-0.205994
43263285.000,2026-09-28,-0.218203
43263286.000,2026-09-28,-0.228505
43263287.000,2026-09-28,-0.236772
43263288.000,2026-09-28,-0.242869
43263289.000,2026-09-28,-0.246684
43263290.000,2026-09-28,-0.248142
43263291.000,2026-09-28,-0.247219
43263292.000,2026-09-28,-0.243949
43263293.000,2026-09-28,-0.238426
43263294.000,2026-09-28,-0.230802
43263295.000,2026-09-28,-0.221283
43263296.000,2026-09-28,-0.210117
43263297.000,2026-09-28,-0.197587
43263298.000,2026-09-28,-0.183997
43263299.000,2026-09-28,-0.169662
43263300.000,2026-09-28,-0.154893
43263301.000,2026-09-28,-0.139990
43263301.834,2026-09-28,-0.127672
43263302.000,2026-09-28,-0.125227
43263303.000,2026-09-28,-0.110846
43263304.000,2026-09-28,-0.097056
43263305.000,2026-09-28,-0.084027
43263306.000,2026-09-28,-0.071886
43263307.000,2026-09-28,-0.060722
43263308.000,2026-09-28,-0.050584
43263309.000,2026-09-28,-0.041487
43263310.000,2026-09-28,-0.033418
43263311.000,2026-09-28,-0.026337
43263312.000,2026-09-28,-0.020186
43263313.000,2026-09-28,-0.014892
43263314.000,2026-09-28,-0.010374
43263315.000,2026-09-28,-0.006547
43263316.000,2026-09-28,-0.003324
43263317.000,2026-09-28,-0.000621
43263318.000,2026-09-28,0.001641
43263319.000,2026-09-28,0.003537
43263320.000,2026-09-28,0.005131
43263321.000,2026-09-28,0.006483
43263322.000,2026-09-28,0.007643
43263323.000,2026-09-28,0.008654
43263324.000,2026-09-28,0.009552
43263325.000,2026-09-28,0.010368
43263326.000,2026-09-28,0.011125
43263327.000,2026-09-28,0.011844
43263328.000,2026-09-28,0.012539
43263329.000,2026-09-28,0.013224
43263330.000,2026-09-28,0.013908
43263331.000,2026-09-28,0.014598
43263332.000,2026-09-28,0.015300
43263333.000,2026-09-28,0.016018
43263334.000,2026-09-28,0.016756
43263335.000,2026-09-28,0.017517
43263336.000,2026-09-28,0.018303
43263337.000,2026-09-28,0.019115
43263338.000,2026-09-28,0.019954
43263339.000,2026-09-28,0.020823
43263340.000,2026-09-28,0.021722
43263341.000,2026-09-28,0.022651
43263342.000,2026-09-28,0.023612
43263343.000,2026-09-28,0.024606
43263344.000,2026-09-28,0.025633
43263345.000,2026-09-28,0.026694
43263346.000,2026-09-28,0.027790
43263347.000,2026-09-28,0.028921
43263348.000,2026-09-28,0.030089
43263349.000,2026-09-28,0.031293
43263350.000,2026-09-28,0.032535
43263351.000,2026-09-28,0.033815
43263352.000,2026-09-28,0.035134
43263353.000,2026-09-28,0.036492
43263354.000,2026-09-28,0.037890
43263355.000,2026-09-28,0.039329
43263356.000,2026-09-28,0.040809
43263357.000,2026-09-28,0.042331
43263358.000,2026-09-28,0.043895
43263359.000,2026-09-28,0.045502
43263360.000,2026-09-28,0.047151
43263361.000,2026-09-28,0.048845
43263362.000,2026-09-28,0.050582
43263363.000,2026-09-28,0.052364
43263364.000,2026-09-28,0.054191
43263365.000,2026-09-28,0.056062
43263366.000,2026-09-28,0.057979
43263367.000,2026-09-28,0.059942
43263368.000,2026-09-28,0.061950
43263369.000,2026-09-28,0.064005
43263370.000,2026-09-28,0.066105
43263371.000,2026-09-28,0.068251
43263372.000,2026-09-28,0.070444
43263373.000,2026-09-28,0.072683
43263374.000,2026-09-28,0.074967
43263375.000,2026-09-28,0.077298
43263376.000,2026-09-28,0.079674
43263377.000,2026-09-28,0.082096
43263378.000,2026-09-28,0.084563
43263379.000,2026-09-28,0.087075
43263380.000,2026-09-28,0.089631
43263381.000,2026-09-28,0.092231
43263382.000,2026-09-28,0.094875
43263383.000,2026-09-28,0.097562
43263384.000,2026-09-28,0.100291
43263385.000,2026-09-28,0.103061
43263386.000,2026-09-28,0.105872
43263387.000,2026-09-28,0.108723
43263388.000,2026-09-28,0.111613
43263389.000,2026-09-28,0.114541
43263390.000,2026-09-28,0.117506
43263391.000,2026-09-28,0.120507
43263392.000,2026-09-28,0.123543
43263393.000,2026-09-28,0.126612
43263394.000,2026-09-28,0.129714
43263395.000,2026-09-28,0.132846
43263396.000,2026-09-28,0.136008
43263397.000,2026-09-28,0.139197
43263398.000,2026-09-28,0.142413
43263399.000,2026-09-28,0.145653
43263400.000,2026-09-28,0.148917
43263401.000,2026-09-28,0.152201
43263401.890,2026-09-28,0.155141
43263402.000,2026-09-28,0.155505
43263403.000,2026-09-28,0.158825
43263404.000,2026-09-28,0.162160
43263405.000,2026-09-28,0.165507
43263406.000,2026-09-28,0.168864
43263407.000,2026-09-28,0.172229
43263408.000,2026-09-28,0.175600
43263409.000,2026-09-28,0.178975
43263410.000,2026-09-28,0.182351
43263411.000,2026-09-28,0.185726
43263412.000,2026-09-28,0.189098
43263413.000,2026-09-28,0.192465
43263414.000,2026-09-28,0.195824
43263415.000,2026-09-28,0.199172
43263416.000,2026-09-28,0.202507
43263417.000,2026-09-28,0.205827
43263418.000,2026-09-28,0.209128
43263419.000,2026-09-28,0.212410
43263420.000,2026-09-28,0.215668
43263421.000,2026-09-28,0.218900
43263422.000,2026-09-28,0.222104
43263423.000,2026-09-28,0.225278
43263424.000,2026-09-28,0.228417
43263425.000,2026-09-28,0.231521
43263426.000,2026-09-28,0.234586
43263427.000,2026-09-28,0.237610
43263428.000,2026-09-28,0.240590
43263429.000,2026-09-28,0.243523
43263430.000,2026-09-28,0.246407
43263431.000,2026-09-28,0.249240
43263432.000,2026-09-28,0.252019
43263433.000,2026-09-28,0.254741
43263434.000,2026-09-28,0.257404
43263435.000,2026-09-28,0.260006
43263436.000,2026-09-28,0.262544
43263437.000,2026-09-28,0.265016
43263438.000,2026-09-28,0.267419
43263439.000,2026-09-28,0.269752
43263440.000,2026-09-28,0.272012
43263441.000,2026-09-28,0.274198
43263442.000,2026-09-28,0.276306
43263443.000,2026-09-28,0.278335
43263444.000,2026-09-28,0.280283
43263445.000,2026-09-28,0.282149
43263446.000,2026-09-28,0.283930
43263447.000,2026-09-28,0.285625
43263448.000,2026-09-28,0.287232
43263449.000,2026-09-28,0.288749
43263450.000,2026-09-28,0.290176
43263451.000,2026-09-28,0.291510
43263452.000,2026-09-28,0.292751
43263453.000,2026-09-28,0.293897
43263454.000,2026-09-28,0.294947
43263455.000,2026-09-28,0.295901
43263456.000,2026-09-28,0.296756
43263457.000,2026-09-28,0.297513
43263458.000,2026-09-28,0.298170
43263459.000,2026-09-28,0.298728
43263460.000,2026-09-28,0.299184
43263461.000,2026-09-28,0.299540
43263462.000,2026-09-28,0.299795
43263463.000,2026-09-28,0.299948
43263464.000,2026-09-28,0.300000
43263465.000,2026-09-28,0.299950
43263466.000,2026-09-28,0.299799
43263467.000,2026-09-28,0.299546
43263468.000,2026-09-28,0.299192
43263469.000,2026-09-28,0.298738
43263470.000,2026-09-28,0.298183
43263471.000,2026-09-28,0.297529
43263472.000,2026-09-28,0.296776
43263473.000,2026-09-28,0.295925
43263474.000,2026-09-28,0.294977
43263475.000,2026-09-28,0.293933
43263476.000,2026-09-28,0.292794
43263477.000,2026-09-28,0.291560
43263478.000,2026-09-28,0.290234
43263479.000,2026-09-28,0.288817
43263480.000,2026-09-28,0.287310
43263481.000,2026-09-28,0.285715
43263482.000,2026-09-28,0.284033
43263483.000,2026-09-28,0.282266
43263484.000,2026-09-28,0.280415
43263485.000,2026-09-28,0.278483
43263486.000,2026-09-28,0.276472
43263487.000,2026-09-28,0.274382
43263488.000,2026-09-28,0.272218
43263489.000,2026-09-28,0.269979
43263490.000,2026-09-28,0.267669
43263491.000,2026-09-28,0.265290
43263492.000,2026-09-28,0.262844
43263493.000,2026-09-28,0.260333
43263494.000,2026-09-28,0.257759
43263495.000,2026-09-28,0.255126
43263496.000,2026-09-28,0.252435
43263497.000,2026-09-28,0.249689
43263498.000,2026-09-28,0.246890
43263499.000,2026-09-28,0.244040
43263500.000,2026-09-28,0.241143
43263501.000,2026-09-28,0.238201
43263501.946,2026-09-28,0.235378
43263502.000,2026-09-28,0.235215
43263503.000,2026-09-28,0.232189
43263504.000,2026-09-28,0.229124
43263505.000,2026-09-28,0.226023
43263506.000,2026-09-28,0.222889
43263507.000,2026-09-28,0.219724
43263508.000,2026-09-28,0.216530
43263509.000,2026-09-28,0.213310
43263510.000,2026-09-28,0.210067
43263511.000,2026-09-28,0.206804
43263512.000,2026-09-28,0.203521
43263513.000,2026-09-28,0.200223
43263514.000,2026-09-28,0.196912
43263515.000,2026-09-28,0.193589
43263516.000,2026-09-28,0.190258
43263517.000,2026-09-28,0.186920
43263518.000,2026-09-28,0.183579
43263519.000,2026-09-28,0.180236
43263520.000,2026-09-28,0.176893
43263521.000,2026-09-28,0.173553
43263522.000,2026-09-28,0.170219
43263523.000,2026-09-28,0.166891
43263524.000,2026-09-28,0.163573
43263525.000,2026-09-28,0.160266
43263526.000,2026-09-28,0.156972
43263527.000,2026-09-28,0.153693
43263528.000,2026-09-28,0.150432
43263529.000,2026-09-28,0.147189
43263530.000,2026-09-28,0.143967
43263531.000,2026-09-28,0.140767
43263532.000,2026-09-28,0.137591
43263533.000,2026-09-28,0.134441
43263534.000,2026-09-28,0.131318
43263535.000,2026-09-28,0.128224
43263536.000,2026-09-28,0.125159
43263537.000,2026-09-28,0.122126
43263538.000,2026-09-28,0.119126
43263539.000,2026-09-28,0.116159
43263540.000,2026-09-28,0.113227
43263541.000,2026-09-28,0.110332
43263542.000,2026-09-28,0.107473
43263543.000,2026-09-28,0.104653
43263544.000,2026-09-28,0.101871
43263545.000,2026-09-28,0.099130
43263546.000,2026-09-28,0.096429
43263547.000,2026-09-28,0.093769
43263548.000,2026-09-28,0.091151
43263549.000,2026-09-28,0.088576
43263550.000,2026-09-28,0.086044
43263551.000,2026-09-28,0.083555
43263552.000,2026-09-28,0.081111
43263553.000,2026-09-28,0.078710
43263554.000,2026-09-28,0.076355
43263555.000,2026-09-28,0.074044
43263556.000,2026-09-28,0.071779
43263557.000,2026-09-28,0.069558
43263558.000,2026-09-28,0.067384
43263559.000,2026-09-28,0.065254
43263560.000,2026-09-28,0.063170
43263561.000,2026-09-28,0.061132
43263562.000,2026-09-28,0.059138
43263563.000,2026-09-28,0.057190
43263564.000,2026-09-28,0.055287
43263565.000,2026-09-28,0.053429
43263566.000,2026-09-28,0.051615
43263567.000,2026-09-28,0.049846
43263568.000,2026-09-28,0.048120
43263569.000,2026-09-28,0.046439
43263570.000,2026-09-28,0.044800
43263571.000,2026-09-28,0.043204
43263572.000,2026-09-28,0.041651
43263573.000,2026-09-28,0.040139
43263574.000,2026-09-28,0.038669
43263575.000,2026-09-28,0.037240
43263576.000,2026-09-28,0.035851
43263577.000,2026-09-28,0.034502
43263578.000,2026-09-28,0.033193
43263579.000,2026-09-28,0.031921
43263580.000,2026-09-28,0.030688
43263581.000,2026-09-28,0.029492
43263582.000,2026-09-28,0.028333
43263583.000,2026-09-28,0.027210
43263584.000,2026-09-28,0.026123
43263585.000,2026-09-28,0.025070
43263586.000,2026-09-28,0.024051
